# depth (km), T (K), c, rho (kg/m^3), elastic_Vp (km/s), elastic_Vs (km/s), anelastic_Vp (km/s), anelastic_Vs (km/s), Q_S, Q_K, Q_P, T_solidus (K)
2.88372e+03 3.85487e+03 1.00000e+00 1.69367e+03 1.09735e+01 7.09966e+00 1.08399e+01 6.95651e+00 1.03284e+02 1.00000e+03 1.71069e+02 4.18305e+03
2.87076e+03 3.81687e+03 1.00000e+00 1.69262e+03 1.09634e+01 7.10228e+00 1.08339e+01 6.96393e+00 1.06919e+02 1.00000e+03 1.76246e+02 4.17566e+03
2.85723e+03 3.77715e+03 9.17616e-01 1.68648e+03 1.09655e+01 7.09839e+00 1.08404e+01 6.96514e+00 1.10949e+02 1.00000e+03 1.82574e+02 4.16804e+03
2.84311e+03 3.73553e+03 9.17016e-01 1.68508e+03 1.09529e+01 7.10034e+00 1.08322e+01 6.97224e+00 1.15432e+02 1.00000e+03 1.88900e+02 4.16006e+03
2.82840e+03 3.69181e+03 8.59353e-01 1.68026e+03 1.09492e+01 7.09818e+00 1.08331e+01 6.97545e+00 1.20456e+02 1.00000e+03 1.96401e+02 4.15169e+03
2.81306e+03 3.64552e+03 8.62338e-01 1.67902e+03 1.09352e+01 7.10090e+00 1.08238e+01 6.98368e+00 1.26167e+02 1.00000e+03 2.04334e+02 4.14294e+03
2.79710e+03 3.59643e+03 9.22002e-01 1.68095e+03 1.09108e+01 7.10781e+00 1.08040e+01 6.99627e+00 1.32713e+02 1.00000e+03 2.12864e+02 4.13379e+03
2.78050e+03 3.54394e+03 9.00875e-01 1.67812e+03 1.08991e+01 7.10911e+00 1.07975e+01 7.00361e+00 1.40339e+02 1.00000e+03 2.23469e+02 4.12423e+03
2.76328e+03 3.48764e+03 9.94958e-01 1.68198e+03 1.08684e+01 7.11974e+00 1.07720e+01 7.02045e+00 1.49342e+02 1.00000e+03 2.34787e+02 4.11432e+03
2.74543e+03 3.42694e+03 9.36947e-01 1.67711e+03 1.08628e+01 7.12002e+00 1.07722e+01 7.02742e+00 1.60143e+02 1.00000e+03 2.49743e+02 4.10407e+03
2.72696e+03 3.36085e+03 9.29205e-01 1.67507e+03 1.08480e+01 7.12465e+00 1.07635e+01 7.03908e+00 1.73406e+02 1.00000e+03 2.67269e+02 4.09349e+03
2.70790e+03 3.28858e+03 1.00000e+00 1.67754e+03 1.08203e+01 7.13640e+00 1.07420e+01 7.05817e+00 1.90001e+02 1.00000e+03 2.87972e+02 4.08253e+03
2.68827e+03 3.20852e+03 6.91943e-01 1.65861e+03 1.08539e+01 7.12043e+00 1.07829e+01 7.05030e+00 2.11461e+02 1.00000e+03 3.18493e+02 4.07118e+03
2.66810e+03 3.11774e+03 1.96262e-01 1.62933e+03 1.09179e+01 7.08921e+00 1.08549e+01 7.02787e+00 2.40682e+02 1.00000e+03 3.60553e+02 4.05947e+03
2.64742e+03 3.01712e+03 4.77880e-02 1.61989e+03 1.09246e+01 7.08679e+00 1.08691e+01 7.03422e+00 2.80739e+02 1.00000e+03 4.10254e+02 4.04755e+03
2.62625e+03 2.91173e+03 8.99570e-02 1.62126e+03 1.08999e+01 7.10156e+00 1.08516e+01 7.05725e+00 3.33739e+02 1.00000e+03 4.69506e+02 4.03528e+03
2.60465e+03 2.80537e+03 4.83390e-02 1.61793e+03 1.08884e+01 7.10891e+00 1.08466e+01 7.07213e+00 4.02523e+02 1.00000e+03 5.42411e+02 4.02267e+03
2.58265e+03 2.70408e+03 1.98114e-01 1.62588e+03 1.08406e+01 7.14116e+00 1.08043e+01 7.11063e+00 4.87147e+02 1.00000e+03 6.21457e+02 4.00974e+03
2.56028e+03 2.61251e+03 1.81337e-01 1.62338e+03 1.08235e+01 7.14695e+00 1.07917e+01 7.12151e+00 5.85034e+02 1.00000e+03 7.08036e+02 3.99661e+03
2.53759e+03 2.52933e+03 2.35310e-02 1.61237e+03 1.08315e+01 7.13086e+00 1.08033e+01 7.10957e+00 6.97419e+02 1.00000e+03 7.99537e+02 3.98332e+03
2.51461e+03 2.45924e+03 4.51840e-02 1.61169e+03 1.08054e+01 7.13720e+00 1.07799e+01 7.11892e+00 8.13166e+02 1.00000e+03 8.82101e+02 3.96976e+03
2.49137e+03 2.40225e+03 6.69390e-02 1.61065e+03 1.07779e+01 7.14080e+00 1.07544e+01 7.12469e+00 9.23223e+02 1.00000e+03 9.53586e+02 3.95595e+03
2.46791e+03 2.35688e+03 1.19492e-01 1.61126e+03 1.07449e+01 7.14686e+00 1.07228e+01 7.13228e+00 1.02074e+03 1.00000e+03 1.01213e+03 3.94193e+03
2.44425e+03 2.32117e+03 6.39920e-02 1.60524e+03 1.07298e+01 7.13498e+00 1.07087e+01 7.12150e+00 1.10219e+03 1.00000e+03 1.05782e+03 3.92788e+03
2.42041e+03 2.29360e+03 1.60199e-01 1.60786e+03 1.06870e+01 7.14336e+00 1.06666e+01 7.13059e+00 1.16459e+03 1.00000e+03 1.09193e+03 3.91363e+03
2.39643e+03 2.27316e+03 3.25844e-01 1.61436e+03 1.06321e+01 7.15998e+00 1.06122e+01 7.14761e+00 1.20612e+03 1.00000e+03 1.11525e+03 3.89917e+03
2.37233e+03 2.25768e+03 2.26720e-02 1.59341e+03 1.06573e+01 7.10808e+00 1.06376e+01 7.09606e+00 1.23117e+03 1.00000e+03 1.12533e+03 3.88451e+03
2.34811e+03 2.24628e+03 1.30220e-02 1.58942e+03 1.06310e+01 7.09748e+00 1.06114e+01 7.08558e+00 1.24189e+03 1.00000e+03 1.13090e+03 3.86989e+03
2.32381e+03 2.23871e+03 5.72440e-02 1.58847e+03 1.05952e+01 7.09378e+00 1.05757e+01 7.08185e+00 1.23809e+03 1.00000e+03 1.12987e+03 3.85510e+03
2.29941e+03 2.23441e+03 1.27031e-01 1.58898e+03 1.05555e+01 7.09305e+00 1.05360e+01 7.08096e+00 1.22189e+03 1.00000e+03 1.12275e+03 3.84013e+03
2.27496e+03 2.23278e+03 6.04440e-02 1.58146e+03 1.05379e+01 7.07219e+00 1.05181e+01 7.05988e+00 1.19583e+03 1.00000e+03 1.10907e+03 3.82500e+03
2.25044e+03 2.23357e+03 2.46520e-02 1.57567e+03 1.05147e+01 7.05518e+00 1.04946e+01 7.04254e+00 1.16194e+03 1.00000e+03 1.09130e+03 3.80989e+03
2.22587e+03 2.23659e+03 1.29723e-01 1.57794e+03 1.04681e+01 7.05701e+00 1.04478e+01 7.04390e+00 1.12137e+03 1.00000e+03 1.07019e+03 3.79465e+03
2.20127e+03 2.24150e+03 3.72220e-02 1.56867e+03 1.04531e+01 7.03070e+00 1.04323e+01 7.01710e+00 1.07601e+03 1.00000e+03 1.04451e+03 3.77925e+03
2.17662e+03 2.24793e+03 8.17130e-02 1.56701e+03 1.04178e+01 7.01797e+00 1.03965e+01 7.00375e+00 1.02782e+03 1.00000e+03 1.01665e+03 3.76369e+03
2.15195e+03 2.25520e+03 4.79341e-01 1.58410e+03 1.03346e+01 7.02747e+00 1.03128e+01 7.01254e+00 9.79722e+02 1.00000e+03 9.87400e+02 3.74814e+03
2.12725e+03 2.26307e+03 7.12480e-02 1.55851e+03 1.03585e+01 6.98872e+00 1.03359e+01 6.97311e+00 9.32374e+02 1.00000e+03 9.57835e+02 3.73248e+03
2.10253e+03 2.27207e+03 5.99180e-02 1.55393e+03 1.03296e+01 6.97354e+00 1.03063e+01 6.95712e+00 8.84590e+02 1.00000e+03 9.26541e+02 3.71667e+03
2.07779e+03 2.28176e+03 5.60830e-02 1.54971e+03 1.02995e+01 6.95853e+00 1.02755e+01 6.94123e+00 8.37735e+02 1.00000e+03 8.94545e+02 3.70069e+03
2.05304e+03 2.29193e+03 1.43000e-03 1.54272e+03 1.02752e+01 6.94063e+00 1.02504e+01 6.92239e+00 7.92701e+02 1.00000e+03 8.62745e+02 3.68471e+03
2.02827e+03 2.30242e+03 0.00000e+00 1.53851e+03 1.02437e+01 6.92522e+00 1.02180e+01 6.90598e+00 7.49668e+02 1.00000e+03 8.30919e+02 3.66863e+03
2.00349e+03 2.31299e+03 2.73740e-02 1.53588e+03 1.02090e+01 6.91111e+00 1.01824e+01 6.89080e+00 7.08997e+02 1.00000e+03 7.99491e+02 3.65238e+03
1.97871e+03 2.32333e+03 1.20294e-01 1.53667e+03 1.01659e+01 6.89917e+00 1.01384e+01 6.87776e+00 6.71097e+02 1.00000e+03 7.68659e+02 3.63597e+03
1.95391e+03 2.33315e+03 1.12951e-01 1.53211e+03 1.01349e+01 6.88288e+00 1.01064e+01 6.86035e+00 6.36348e+02 1.00000e+03 7.39961e+02 3.61954e+03
1.92911e+03 2.34234e+03 1.00631e-01 1.52729e+03 1.01044e+01 6.86648e+00 1.00749e+01 6.84282e+00 6.04548e+02 1.00000e+03 7.12879e+02 3.60300e+03
1.90431e+03 2.35072e+03 1.15055e-01 1.52387e+03 1.00705e+01 6.85094e+00 1.00400e+01 6.82615e+00 5.75574e+02 1.00000e+03 6.87271e+02 3.58630e+03
1.87950e+03 2.35814e+03 1.57797e-01 1.52202e+03 1.00337e+01 6.83634e+00 1.00022e+01 6.81042e+00 5.49343e+02 1.00000e+03 6.63231e+02 3.56942e+03
1.85468e+03 2.36456e+03 1.27077e-01 1.51633e+03 1.00058e+01 6.82001e+00 9.97327e+00 6.79299e+00 5.25731e+02 1.00000e+03 6.41512e+02 3.55250e+03
1.82986e+03 2.36997e+03 1.57869e-01 1.51378e+03 9.96970e+00 6.80478e+00 9.93627e+00 6.77669e+00 5.04413e+02 1.00000e+03 6.21006e+02 3.53547e+03
1.80504e+03 2.37436e+03 1.05291e-01 1.50689e+03 9.94347e+00 6.78821e+00 9.90910e+00 6.75907e+00 4.85108e+02 1.00000e+03 6.02572e+02 3.51826e+03
1.78022e+03 2.37779e+03 1.50180e-01 1.50509e+03 9.90560e+00 6.77318e+00 9.87032e+00 6.74301e+00 4.67554e+02 1.00000e+03 5.84824e+02 3.50086e+03
1.75539e+03 2.38031e+03 1.80019e-01 1.50250e+03 9.86953e+00 6.75783e+00 9.83337e+00 6.72667e+00 4.51613e+02 1.00000e+03 5.68483e+02 3.48341e+03
1.73057e+03 2.38197e+03 1.01395e-01 1.49437e+03 9.84652e+00 6.74205e+00 9.80950e+00 6.70993e+00 4.37064e+02 1.00000e+03 5.53974e+02 3.46583e+03
1.70574e+03 2.38288e+03 1.60819e-01 1.49340e+03 9.80758e+00 6.72718e+00 9.76972e+00 6.69411e+00 4.23618e+02 1.00000e+03 5.39511e+02 3.44806e+03
1.68091e+03 2.38307e+03 1.75423e-01 1.49003e+03 9.77305e+00 6.71170e+00 9.73437e+00 6.67770e+00 4.11155e+02 1.00000e+03 5.26145e+02 3.43009e+03
1.65608e+03 2.38262e+03 1.60151e-01 1.48510e+03 9.74168e+00 6.69620e+00 9.70219e+00 6.66130e+00 3.99606e+02 1.00000e+03 5.13736e+02 3.41204e+03
1.63125e+03 2.38164e+03 1.18249e-01 1.47879e+03 9.71301e+00 6.68090e+00 9.67271e+00 6.64511e+00 3.88777e+02 1.00000e+03 5.02072e+02 3.39386e+03
1.60641e+03 2.38024e+03 1.28917e-01 1.47520e+03 9.67848e+00 6.66539e+00 9.63739e+00 6.62871e+00 3.78465e+02 1.00000e+03 4.90552e+02 3.37546e+03
1.58158e+03 2.37845e+03 1.64782e-01 1.47299e+03 9.64189e+00 6.64983e+00 9.59999e+00 6.61226e+00 3.68616e+02 1.00000e+03 4.79315e+02 3.35684e+03
1.55675e+03 2.37625e+03 1.20744e-01 1.46664e+03 9.61348e+00 6.63508e+00 9.57078e+00 6.59662e+00 3.59290e+02 1.00000e+03 4.68906e+02 3.33812e+03
1.53192e+03 2.37371e+03 1.42996e-01 1.46362e+03 9.57739e+00 6.61913e+00 9.53389e+00 6.57979e+00 3.50375e+02 1.00000e+03 4.58548e+02 3.31926e+03
1.50708e+03 2.37087e+03 1.88291e-01 1.46178e+03 9.53890e+00 6.60257e+00 9.49459e+00 6.56233e+00 3.41766e+02 1.00000e+03 4.48365e+02 3.30017e+03
1.48225e+03 2.36774e+03 1.60567e-01 1.45616e+03 9.50754e+00 6.58721e+00 9.46241e+00 6.54607e+00 3.33436e+02 1.00000e+03 4.38696e+02 3.28083e+03
1.45742e+03 2.36434e+03 9.59560e-02 1.44872e+03 9.48024e+00 6.57316e+00 9.43426e+00 6.53109e+00 3.25414e+02 1.00000e+03 4.29412e+02 3.26136e+03
1.43258e+03 2.36085e+03 1.77410e-01 1.44878e+03 9.43857e+00 6.55542e+00 9.39174e+00 6.51243e+00 3.17551e+02 1.00000e+03 4.19772e+02 3.24173e+03
1.40775e+03 2.35730e+03 1.26986e-01 1.44196e+03 9.40867e+00 6.54063e+00 9.36094e+00 6.49665e+00 3.09757e+02 1.00000e+03 4.10539e+02 3.22184e+03
1.38292e+03 2.35382e+03 1.58613e-01 1.43932e+03 9.37078e+00 6.52328e+00 9.32211e+00 6.47829e+00 3.01952e+02 1.00000e+03 4.01009e+02 3.20168e+03
1.35808e+03 2.35040e+03 1.16291e-01 1.43288e+03 9.33953e+00 6.50815e+00 9.28987e+00 6.46208e+00 2.94205e+02 1.00000e+03 3.91662e+02 3.18137e+03
1.33325e+03 2.34705e+03 1.48792e-01 1.43024e+03 9.30119e+00 6.49025e+00 9.25050e+00 6.44307e+00 2.86508e+02 1.00000e+03 3.82156e+02 3.16087e+03
1.30842e+03 2.34359e+03 1.44156e-01 1.42577e+03 9.26675e+00 6.47387e+00 9.21498e+00 6.42554e+00 2.78919e+02 1.00000e+03 3.72806e+02 3.14008e+03
1.28359e+03 2.33984e+03 1.28306e-01 1.42072e+03 9.23307e+00 6.45791e+00 9.18019e+00 6.40838e+00 2.71550e+02 1.00000e+03 3.63667e+02 3.11899e+03
1.25875e+03 2.33565e+03 1.39720e-01 1.41696e+03 9.19610e+00 6.44036e+00 9.14212e+00 6.38965e+00 2.64521e+02 1.00000e+03 3.54826e+02 3.09771e+03
1.23392e+03 2.33091e+03 1.64498e-01 1.41387e+03 9.15787e+00 6.42208e+00 9.10280e+00 6.37022e+00 2.57880e+02 1.00000e+03 3.46387e+02 3.07622e+03
1.20909e+03 2.32555e+03 1.93090e-01 1.41097e+03 9.11926e+00 6.40349e+00 9.06312e+00 6.35048e+00 2.51584e+02 1.00000e+03 3.38324e+02 3.05441e+03
1.18426e+03 2.31950e+03 1.69254e-01 1.40540e+03 9.08476e+00 6.38754e+00 9.02754e+00 6.33338e+00 2.45646e+02 1.00000e+03 3.30671e+02 3.03225e+03
1.15943e+03 2.31277e+03 1.60752e-01 1.40070e+03 9.04963e+00 6.37130e+00 8.99135e+00 6.31602e+00 2.40075e+02 1.00000e+03 3.23417e+02 3.00985e+03
1.13461e+03 2.30548e+03 1.17041e-01 1.39389e+03 9.02569e+00 6.36267e+00 8.96630e+00 6.30623e+00 2.34796e+02 1.00000e+03 3.16511e+02 2.98723e+03
1.10978e+03 2.29766e+03 5.71570e-02 1.38665e+03 8.98869e+00 6.34649e+00 8.92825e+00 6.28896e+00 2.29725e+02 1.00000e+03 3.09722e+02 2.96422e+03
1.08496e+03 2.28939e+03 1.71981e-01 1.38778e+03 8.95163e+00 6.32814e+00 8.89015e+00 6.26952e+00 2.24797e+02 1.00000e+03 3.03233e+02 2.94083e+03
1.06014e+03 2.28087e+03 1.81683e-01 1.38396e+03 8.91506e+00 6.31122e+00 8.85249e+00 6.25146e+00 2.19954e+02 1.00000e+03 2.96756e+02 2.91715e+03
1.03532e+03 2.27204e+03 1.39442e-01 1.37731e+03 8.87521e+00 6.29354e+00 8.81154e+00 6.23264e+00 2.15226e+02 1.00000e+03 2.90303e+02 2.89320e+03
1.01050e+03 2.26305e+03 1.99297e-01 1.37564e+03 8.83655e+00 6.27449e+00 8.77174e+00 6.21240e+00 2.10483e+02 1.00000e+03 2.83963e+02 2.86881e+03
9.85693e+02 2.25385e+03 1.97435e-01 1.37101e+03 8.79746e+00 6.25637e+00 8.73144e+00 6.19303e+00 2.05735e+02 1.00000e+03 2.77523e+02 2.84397e+03
9.60888e+02 2.24444e+03 1.91960e-01 1.36611e+03 8.75746e+00 6.23786e+00 8.69018e+00 6.17323e+00 2.01028e+02 1.00000e+03 2.71105e+02 2.81878e+03
9.36088e+02 2.23476e+03 1.30835e-01 1.35854e+03 8.71674e+00 6.22062e+00 8.64815e+00 6.15465e+00 1.96400e+02 1.00000e+03 2.64662e+02 2.79327e+03
9.11289e+02 2.22467e+03 1.14897e-01 1.35315e+03 8.67634e+00 6.20247e+00 8.60640e+00 6.13513e+00 1.91834e+02 1.00000e+03 2.58360e+02 2.76724e+03
8.86506e+02 2.21401e+03 1.06483e-01 1.34824e+03 8.63682e+00 6.18469e+00 8.56551e+00 6.11596e+00 1.87398e+02 1.00000e+03 2.52227e+02 2.74070e+03
8.61728e+02 2.20260e+03 1.25628e-01 1.34469e+03 8.59777e+00 6.16633e+00 8.52510e+00 6.09622e+00 1.83174e+02 1.00000e+03 2.46406e+02 2.71370e+03
8.36962e+02 2.19023e+03 1.51997e-01 1.34092e+03 8.55513e+00 6.14322e+00 8.48123e+00 6.07185e+00 1.79262e+02 1.00000e+03 2.41097e+02 2.68634e+03
8.12206e+02 2.17708e+03 9.14740e-02 1.32417e+03 8.46337e+00 6.05123e+00 8.38930e+00 5.97942e+00 1.75497e+02 1.00000e+03 2.37966e+02 2.65836e+03
7.87467e+02 2.16550e+03 1.03640e-01 1.31500e+03 8.39553e+00 5.99077e+00 8.32049e+00 5.91780e+00 1.70986e+02 1.00000e+03 2.33012e+02 2.62976e+03
7.62750e+02 2.15295e+03 1.15861e-01 1.31074e+03 8.35341e+00 5.97012e+00 8.27680e+00 5.89554e+00 1.66722e+02 1.00000e+03 2.27072e+02 2.60057e+03
7.38050e+02 2.14000e+03 1.34813e-01 1.30442e+03 8.29995e+00 5.93248e+00 8.22198e+00 5.85645e+00 1.62501e+02 1.00000e+03 2.21697e+02 2.57087e+03
7.13377e+02 2.12807e+03 8.32410e-02 1.29930e+03 8.26925e+00 5.93299e+00 8.18894e+00 5.85468e+00 1.57792e+02 1.00000e+03 2.14435e+02 2.54049e+03
6.88732e+02 2.11654e+03 9.87950e-02 1.29466e+03 8.22479e+00 5.90846e+00 8.14234e+00 5.82796e+00 1.52859e+02 1.00000e+03 2.07757e+02 2.50949e+03
6.64125e+02 2.10605e+03 1.78724e-01 1.28323e+03 8.16912e+00 5.83180e+00 8.07751e+00 5.74128e+00 1.34168e+02 1.00000e+03 1.85698e+02 2.47834e+03
6.39563e+02 2.09500e+03 1.46266e-01 1.23239e+03 8.02875e+00 5.59601e+00 7.92295e+00 5.48850e+00 1.08403e+02 1.00000e+03 1.58039e+02 2.44863e+03
6.15044e+02 2.08364e+03 1.37771e-01 1.20414e+03 7.90269e+00 5.39801e+00 7.78992e+00 5.28102e+00 9.60947e+01 1.00000e+03 1.45950e+02 2.43484e+03
5.90587e+02 2.07319e+03 1.41908e-01 1.18962e+03 7.79695e+00 5.30571e+00 7.68638e+00 5.19070e+00 9.60774e+01 1.00000e+03 1.46869e+02 2.42254e+03
5.66195e+02 2.05904e+03 1.83248e-01 1.17985e+03 7.69428e+00 5.22025e+00 7.58652e+00 5.10797e+00 9.68243e+01 1.00000e+03 1.48700e+02 2.40956e+03
5.41886e+02 2.04557e+03 1.48716e-01 1.16919e+03 7.61911e+00 5.17408e+00 7.51266e+00 5.06325e+00 9.72345e+01 1.00000e+03 1.49056e+02 2.39571e+03
5.17671e+02 2.03333e+03 1.32860e-01 1.15590e+03 7.52356e+00 5.11416e+00 7.41817e+00 5.00451e+00 9.71339e+01 1.00000e+03 1.48665e+02 2.38092e+03
4.93566e+02 2.02502e+03 1.79686e-01 1.13909e+03 7.39722e+00 5.06733e+00 7.29090e+00 4.95723e+00 9.58596e+01 1.00000e+03 1.44897e+02 2.36524e+03
4.69588e+02 2.01767e+03 2.06533e-01 1.13245e+03 7.32309e+00 5.02772e+00 7.21569e+00 4.91658e+00 9.42140e+01 1.00000e+03 1.41999e+02 2.34889e+03
4.45753e+02 2.01050e+03 2.03933e-01 1.11657e+03 7.16692e+00 4.90916e+00 7.05884e+00 4.79694e+00 9.11065e+01 1.00000e+03 1.38103e+02 2.33140e+03
4.22094e+02 1.99356e+03 1.57528e-01 1.09354e+03 6.95400e+00 4.74010e+00 6.84203e+00 4.62297e+00 8.42829e+01 1.00000e+03 1.29353e+02 2.31265e+03
3.98628e+02 1.97920e+03 1.63356e-01 1.08865e+03 6.89844e+00 4.72588e+00 6.77569e+00 4.59739e+00 7.65958e+01 1.00000e+03 1.17044e+02 2.29262e+03
3.75394e+02 1.96582e+03 1.56020e-01 1.08265e+03 6.83662e+00 4.70907e+00 6.70759e+00 4.57426e+00 7.27533e+01 1.00000e+03 1.10345e+02 2.27265e+03
3.52408e+02 1.95278e+03 1.46193e-01 1.07656e+03 6.77459e+00 4.69196e+00 6.64317e+00 4.55515e+00 7.14266e+01 1.00000e+03 1.07359e+02 2.25127e+03
3.29720e+02 1.93952e+03 1.45664e-01 1.06898e+03 6.70629e+00 4.66186e+00 6.57247e+00 4.52285e+00 6.98406e+01 1.00000e+03 1.04372e+02 2.22834e+03
3.07351e+02 1.92322e+03 1.60541e-01 1.06203e+03 6.61256e+00 4.58905e+00 6.47879e+00 4.44982e+00 6.86418e+01 1.00000e+03 1.02953e+02 2.20377e+03
2.85352e+02 1.90514e+03 1.58062e-01 1.05660e+03 6.54873e+00 4.57192e+00 6.41278e+00 4.43100e+00 6.75684e+01 1.00000e+03 1.00321e+02 2.17779e+03
2.63750e+02 1.88430e+03 1.29381e-01 1.05007e+03 6.48103e+00 4.55853e+00 6.34300e+00 4.41624e+00 6.67213e+01 1.00000e+03 9.77831e+01 2.14980e+03
2.42583e+02 1.85948e+03 1.43474e-01 1.04595e+03 6.42844e+00 4.55004e+00 6.28917e+00 4.40717e+00 6.63308e+01 1.00000e+03 9.61324e+01 2.11956e+03
2.21901e+02 1.82871e+03 1.02402e-01 1.03865e+03 6.36309e+00 4.54333e+00 6.22401e+00 4.40171e+00 6.68114e+01 1.00000e+03 9.52881e+01 2.08680e+03
2.01726e+02 1.79233e+03 1.55604e-01 1.03550e+03 6.33967e+00 4.55547e+00 6.20246e+00 4.41655e+00 6.82948e+01 1.00000e+03 9.62270e+01 2.05220e+03
1.82097e+02 1.74729e+03 1.69179e-01 1.03146e+03 6.27514e+00 4.54251e+00 6.14347e+00 4.41016e+00 7.14843e+01 1.00000e+03 9.92525e+01 2.01462e+03
1.63035e+02 1.69139e+03 1.22139e-01 1.02500e+03 6.21954e+00 4.54046e+00 6.09675e+00 4.41816e+00 7.73193e+01 1.00000e+03 1.05487e+02 1.97345e+03
1.44575e+02 1.62195e+03 8.85800e-02 1.01931e+03 6.19225e+00 4.54562e+00 6.08288e+00 4.43759e+00 8.76296e+01 1.00000e+03 1.17913e+02 1.92805e+03
1.26724e+02 1.53669e+03 2.37010e-02 1.01421e+03 6.16638e+00 4.56732e+00 6.07414e+00 4.47741e+00 1.05797e+02 1.00000e+03 1.39228e+02 1.87748e+03
1.09498e+02 1.43634e+03 0.00000e+00 1.01176e+03 6.15131e+00 4.59306e+00 6.07867e+00 4.52339e+00 1.37301e+02 1.00000e+03 1.76342e+02 1.82056e+03
9.29033e+01 1.32301e+03 0.00000e+00 1.01091e+03 6.14299e+00 4.62224e+00 6.08972e+00 4.57227e+00 1.92644e+02 1.00000e+03 2.40172e+02 1.75553e+03
7.69398e+01 1.19769e+03 0.00000e+00 1.01076e+03 6.14271e+00 4.65688e+00 6.10788e+00 4.62538e+00 3.07870e+02 1.00000e+03 3.67272e+02 1.68775e+03
6.16048e+01 1.06285e+03 0.00000e+00 1.01119e+03 6.14929e+00 4.69575e+00 6.13001e+00 4.67961e+00 6.05974e+02 1.00000e+03 6.64206e+02 1.62400e+03
4.68871e+01 9.19150e+02 0.00000e+00 1.01190e+03 6.15904e+00 4.73734e+00 6.15008e+00 4.73124e+00 1.61838e+03 1.00000e+03 1.43145e+03 1.56284e+03
3.27703e+01 7.66540e+02 0.00000e+00 1.01310e+03 6.17433e+00 4.78208e+00 6.17033e+00 4.78069e+00 7.20262e+03 1.00000e+03 3.21309e+03 1.50414e+03
1.92405e+01 6.02182e+02 3.17612e-01 1.01077e+03 6.05263e+00 4.68765e+00 6.05000e+00 4.68755e+00 9.21885e+04 1.00000e+03 4.78666e+03 1.45096e+03
6.27568e+00 4.09768e+02 9.57700e-01 1.01554e+03 5.82910e+00 4.48491e+00 5.82654e+00 4.48491e+00 3.20769e+07 1.00000e+03 4.74561e+03 1.40804e+03
