# depth (km), T (K), c, rho (kg/m^3), elastic_Vp (km/s), elastic_Vs (km/s), anelastic_Vp (km/s), anelastic_Vs (km/s), Q_S, Q_K, Q_P, T_solidus (K)
2.88372e+03 3.86931e+03 1.00000e+00 1.69342e+03 1.09726e+01 7.09616e+00 1.08371e+01 6.95079e+00 1.01666e+02 1.00000e+03 1.68704e+02 4.18305e+03
2.87076e+03 3.86134e+03 1.00000e+00 1.69182e+03 1.09607e+01 7.09148e+00 1.08255e+01 6.94639e+00 1.01792e+02 1.00000e+03 1.68779e+02 4.17566e+03
2.85723e+03 3.85265e+03 1.00000e+00 1.68994e+03 1.09467e+01 7.08580e+00 1.08118e+01 6.94109e+00 1.01975e+02 1.00000e+03 1.68927e+02 4.16804e+03
2.84311e+03 3.84311e+03 1.00000e+00 1.68799e+03 1.09322e+01 7.08002e+00 1.07976e+01 6.93577e+00 1.02217e+02 1.00000e+03 1.69153e+02 4.16006e+03
2.82840e+03 3.83263e+03 1.00000e+00 1.68591e+03 1.09167e+01 7.07389e+00 1.07825e+01 6.93020e+00 1.02528e+02 1.00000e+03 1.69474e+02 4.15169e+03
2.81306e+03 3.82107e+03 1.00000e+00 1.68384e+03 1.09012e+01 7.06799e+00 1.07675e+01 6.92497e+00 1.02923e+02 1.00000e+03 1.69912e+02 4.14294e+03
2.79710e+03 3.80833e+03 1.00000e+00 1.68164e+03 1.08846e+01 7.06178e+00 1.07517e+01 6.91956e+00 1.03416e+02 1.00000e+03 1.70484e+02 4.13379e+03
2.78050e+03 3.79425e+03 9.86687e-01 1.67854e+03 1.08692e+01 7.05444e+00 1.07371e+01 6.91321e+00 1.04026e+02 1.00000e+03 1.71306e+02 4.12423e+03
2.76328e+03 3.77865e+03 9.06833e-01 1.67160e+03 1.08651e+01 7.04348e+00 1.07341e+01 6.90349e+00 1.04785e+02 1.00000e+03 1.72797e+02 4.11432e+03
2.74543e+03 3.76154e+03 1.00000e+00 1.67465e+03 1.08314e+01 7.04301e+00 1.07013e+01 6.90423e+00 1.05699e+02 1.00000e+03 1.73319e+02 4.10407e+03
2.72696e+03 3.74277e+03 9.54068e-01 1.66951e+03 1.08200e+01 7.03402e+00 1.06913e+01 6.89685e+00 1.06796e+02 1.00000e+03 1.75043e+02 4.09349e+03
2.70790e+03 3.72188e+03 8.07844e-01 1.65854e+03 1.08246e+01 7.01952e+00 1.06978e+01 6.88432e+00 1.08135e+02 1.00000e+03 1.77795e+02 4.08253e+03
2.68827e+03 3.69878e+03 8.44547e-01 1.65812e+03 1.07984e+01 7.01591e+00 1.06732e+01 6.88276e+00 1.09741e+02 1.00000e+03 1.79663e+02 4.07118e+03
2.66810e+03 3.67348e+03 7.99738e-01 1.65288e+03 1.07846e+01 7.00758e+00 1.06615e+01 6.87685e+00 1.11638e+02 1.00000e+03 1.82493e+02 4.05947e+03
2.64742e+03 3.64588e+03 8.73233e-01 1.65441e+03 1.07510e+01 7.00608e+00 1.06300e+01 6.87795e+00 1.13878e+02 1.00000e+03 1.84981e+02 4.04755e+03
2.62625e+03 3.61571e+03 7.49736e-01 1.64469e+03 1.07495e+01 6.99437e+00 1.06313e+01 6.86935e+00 1.16515e+02 1.00000e+03 1.89383e+02 4.03528e+03
2.60465e+03 3.58275e+03 7.53066e-01 1.64221e+03 1.07270e+01 6.99000e+00 1.06116e+01 6.86831e+00 1.19622e+02 1.00000e+03 1.93545e+02 4.02267e+03
2.58265e+03 3.54692e+03 6.82526e-01 1.63551e+03 1.07158e+01 6.98208e+00 1.06036e+01 6.86411e+00 1.23268e+02 1.00000e+03 1.98964e+02 4.00974e+03
2.56028e+03 3.50802e+03 7.26940e-01 1.63533e+03 1.06858e+01 6.98070e+00 1.05770e+01 6.86673e+00 1.27568e+02 1.00000e+03 2.04439e+02 3.99661e+03
2.53759e+03 3.46585e+03 6.91520e-01 1.63068e+03 1.06686e+01 6.97586e+00 1.05636e+01 6.86634e+00 1.32655e+02 1.00000e+03 2.11540e+02 3.98332e+03
2.51461e+03 3.42009e+03 6.60709e-01 1.62630e+03 1.06503e+01 6.97188e+00 1.05494e+01 6.86719e+00 1.38693e+02 1.00000e+03 2.19864e+02 3.96976e+03
2.49137e+03 3.37050e+03 6.14953e-01 1.62108e+03 1.06338e+01 6.96774e+00 1.05375e+01 6.86827e+00 1.45896e+02 1.00000e+03 2.29818e+02 3.95595e+03
2.46791e+03 3.31699e+03 6.24086e-01 1.61911e+03 1.06096e+01 6.96763e+00 1.05180e+01 6.87371e+00 1.54508e+02 1.00000e+03 2.41149e+02 3.94193e+03
2.44425e+03 3.25971e+03 5.58058e-01 1.61294e+03 1.05965e+01 6.96426e+00 1.05100e+01 6.87627e+00 1.64825e+02 1.00000e+03 2.55216e+02 3.92788e+03
2.42041e+03 3.19868e+03 5.40119e-01 1.60946e+03 1.05755e+01 6.96395e+00 1.04943e+01 6.88209e+00 1.77179e+02 1.00000e+03 2.71372e+02 3.91363e+03
2.39643e+03 3.13422e+03 4.71313e-01 1.60324e+03 1.05623e+01 6.96181e+00 1.04867e+01 6.88628e+00 1.91965e+02 1.00000e+03 2.90848e+02 3.89917e+03
2.37233e+03 3.06680e+03 4.56069e-01 1.60008e+03 1.05411e+01 6.96309e+00 1.04710e+01 6.89392e+00 2.09630e+02 1.00000e+03 3.13132e+02 3.88451e+03
2.34811e+03 2.99650e+03 3.01182e-01 1.58921e+03 1.05401e+01 6.95745e+00 1.04757e+01 6.89471e+00 2.30948e+02 1.00000e+03 3.40762e+02 3.86989e+03
2.32381e+03 2.92421e+03 3.64131e-01 1.59041e+03 1.05068e+01 6.96364e+00 1.04478e+01 6.90709e+00 2.56464e+02 1.00000e+03 3.70643e+02 3.85510e+03
2.29941e+03 2.85067e+03 1.69298e-01 1.57760e+03 1.05118e+01 6.95672e+00 1.04582e+01 6.90622e+00 2.86903e+02 1.00000e+03 4.07920e+02 3.84013e+03
2.27496e+03 2.77684e+03 8.58380e-02 1.57087e+03 1.04997e+01 6.95542e+00 1.04510e+01 6.91057e+00 3.22977e+02 1.00000e+03 4.49136e+02 3.82500e+03
2.25044e+03 2.70681e+03 1.81632e-01 1.57380e+03 1.04613e+01 6.96298e+00 1.04170e+01 6.92304e+00 3.63144e+02 1.00000e+03 4.91183e+02 3.80989e+03
2.22587e+03 2.64269e+03 1.25925e-01 1.56840e+03 1.04443e+01 6.96108e+00 1.04036e+01 6.92534e+00 4.05651e+02 1.00000e+03 5.35386e+02 3.79465e+03
2.20127e+03 2.58498e+03 8.44860e-02 1.56357e+03 1.04239e+01 6.95833e+00 1.03864e+01 6.92606e+00 4.49115e+02 1.00000e+03 5.78447e+02 3.77925e+03
2.17662e+03 2.53563e+03 1.02010e-01 1.56180e+03 1.03953e+01 6.95716e+00 1.03602e+01 6.92758e+00 4.89959e+02 1.00000e+03 6.16640e+02 3.76369e+03
2.15195e+03 2.49532e+03 1.71205e-01 1.56259e+03 1.03590e+01 6.95661e+00 1.03257e+01 6.92902e+00 5.25072e+02 1.00000e+03 6.47716e+02 3.74814e+03
2.12725e+03 2.46347e+03 1.56381e-01 1.55862e+03 1.03329e+01 6.94954e+00 1.03009e+01 6.92335e+00 5.52515e+02 1.00000e+03 6.71830e+02 3.73248e+03
2.10253e+03 2.43920e+03 1.17888e-01 1.55329e+03 1.03100e+01 6.93997e+00 1.02788e+01 6.91467e+00 5.71337e+02 1.00000e+03 6.88102e+02 3.71667e+03
2.07779e+03 2.42155e+03 1.09785e-01 1.54944e+03 1.02824e+01 6.93041e+00 1.02516e+01 6.90559e+00 5.81480e+02 1.00000e+03 6.96396e+02 3.70069e+03
2.05304e+03 2.40930e+03 9.93200e-02 1.54525e+03 1.02539e+01 6.91924e+00 1.02233e+01 6.89457e+00 5.84064e+02 1.00000e+03 6.98150e+02 3.68471e+03
2.02827e+03 2.40126e+03 1.10081e-01 1.54208e+03 1.02222e+01 6.90795e+00 1.01916e+01 6.88317e+00 5.80474e+02 1.00000e+03 6.94411e+02 3.66863e+03
2.00349e+03 2.39631e+03 1.56878e-01 1.54081e+03 1.01862e+01 6.89745e+00 1.01553e+01 6.87235e+00 5.72338e+02 1.00000e+03 6.86432e+02 3.65238e+03
1.97871e+03 2.39335e+03 1.81266e-01 1.53829e+03 1.01530e+01 6.88536e+00 1.01217e+01 6.85981e+00 5.61352e+02 1.00000e+03 6.76056e+02 3.63597e+03
1.95391e+03 2.39146e+03 1.45207e-01 1.53247e+03 1.01264e+01 6.87056e+00 1.00947e+01 6.84450e+00 5.49062e+02 1.00000e+03 6.64856e+02 3.61954e+03
1.92911e+03 2.39009e+03 1.76951e-01 1.53020e+03 1.00913e+01 6.85770e+00 1.00591e+01 6.83107e+00 5.36266e+02 1.00000e+03 6.52543e+02 3.60300e+03
1.90431e+03 2.38882e+03 1.21407e-01 1.52332e+03 1.00667e+01 6.84225e+00 1.00340e+01 6.81502e+00 5.23463e+02 1.00000e+03 6.40717e+02 3.58630e+03
1.87950e+03 2.38756e+03 7.20000e-02 1.51684e+03 1.00418e+01 6.82739e+00 1.00085e+01 6.79956e+00 5.10808e+02 1.00000e+03 6.28825e+02 3.56942e+03
1.85468e+03 2.38623e+03 7.92570e-02 1.51332e+03 1.00098e+01 6.81390e+00 9.97598e+00 6.78543e+00 4.98494e+02 1.00000e+03 6.16682e+02 3.55250e+03
1.82986e+03 2.38480e+03 1.68805e-01 1.51401e+03 9.96721e+00 6.80143e+00 9.93285e+00 6.77231e+00 4.86493e+02 1.00000e+03 6.04109e+02 3.53547e+03
1.80504e+03 2.38322e+03 1.16778e-01 1.50728e+03 9.94140e+00 6.78626e+00 9.90647e+00 6.75649e+00 4.74794e+02 1.00000e+03 5.92672e+02 3.51826e+03
1.78022e+03 2.38159e+03 7.78980e-02 1.50122e+03 9.91367e+00 6.77137e+00 9.87814e+00 6.74094e+00 4.63292e+02 1.00000e+03 5.81186e+02 3.50086e+03
1.75539e+03 2.37995e+03 1.39329e-01 1.50039e+03 9.87421e+00 6.75754e+00 9.83808e+00 6.72640e+00 4.52004e+02 1.00000e+03 5.69123e+02 3.48341e+03
1.73057e+03 2.37829e+03 1.44911e-01 1.49672e+03 9.84190e+00 6.74324e+00 9.80513e+00 6.71139e+00 4.40920e+02 1.00000e+03 5.57520e+02 3.46583e+03
1.70574e+03 2.37656e+03 1.23104e-01 1.49160e+03 9.81233e+00 6.72861e+00 9.77491e+00 6.69603e+00 4.30020e+02 1.00000e+03 5.46141e+02 3.44806e+03
1.68091e+03 2.37479e+03 1.62704e-01 1.48957e+03 9.77517e+00 6.71377e+00 9.73708e+00 6.68042e+00 4.19280e+02 1.00000e+03 5.34435e+02 3.43009e+03
1.65608e+03 2.37288e+03 1.24106e-01 1.48347e+03 9.74646e+00 6.69872e+00 9.70767e+00 6.66460e+00 4.08872e+02 1.00000e+03 5.23398e+02 3.41204e+03
1.63125e+03 2.37077e+03 6.65240e-02 1.47639e+03 9.71954e+00 6.68389e+00 9.68005e+00 6.64899e+00 3.98802e+02 1.00000e+03 5.12681e+02 3.39386e+03
1.60641e+03 2.36837e+03 1.69545e-01 1.47760e+03 9.67524e+00 6.66813e+00 9.63505e+00 6.63244e+00 3.89098e+02 1.00000e+03 5.01419e+02 3.37546e+03
1.58158e+03 2.36564e+03 3.32966e-01 1.48201e+03 9.62558e+00 6.65149e+00 9.58469e+00 6.61501e+00 3.79772e+02 1.00000e+03 4.90244e+02 3.35684e+03
1.55675e+03 2.36243e+03 1.83349e-01 1.47022e+03 9.60830e+00 6.63788e+00 9.56670e+00 6.60062e+00 3.70996e+02 1.00000e+03 4.81019e+02 3.33812e+03
1.53192e+03 2.35878e+03 1.97470e-02 1.45765e+03 9.59136e+00 6.62497e+00 9.54905e+00 6.58692e+00 3.62680e+02 1.00000e+03 4.72179e+02 3.31926e+03
1.50708e+03 2.35472e+03 2.96840e-02 1.45403e+03 9.55634e+00 6.60975e+00 9.51335e+00 6.57094e+00 3.54732e+02 1.00000e+03 4.62902e+02 3.30017e+03
1.48225e+03 2.35030e+03 5.61450e-02 1.45124e+03 9.51954e+00 6.59406e+00 9.47585e+00 6.55450e+00 3.47082e+02 1.00000e+03 4.53826e+02 3.28083e+03
1.45742e+03 2.34556e+03 8.69790e-02 1.44876e+03 9.48293e+00 6.57841e+00 9.43856e+00 6.53808e+00 3.39741e+02 1.00000e+03 4.45041e+02 3.26136e+03
1.43258e+03 2.34054e+03 6.74540e-02 1.44367e+03 9.45110e+00 6.56383e+00 9.40602e+00 6.52274e+00 3.32650e+02 1.00000e+03 4.36644e+02 3.24173e+03
1.40775e+03 2.33537e+03 8.51470e-02 1.44040e+03 9.41480e+00 6.54784e+00 9.36901e+00 6.50596e+00 3.25658e+02 1.00000e+03 4.28181e+02 3.22184e+03
1.38292e+03 2.33012e+03 8.14350e-02 1.43600e+03 9.38033e+00 6.53228e+00 9.33379e+00 6.48959e+00 3.18696e+02 1.00000e+03 4.19766e+02 3.20168e+03
1.35808e+03 2.32493e+03 2.72810e-02 1.42901e+03 9.35028e+00 6.51829e+00 9.30295e+00 6.47474e+00 3.11719e+02 1.00000e+03 4.11398e+02 3.18137e+03
1.33325e+03 2.32003e+03 1.20424e-01 1.42952e+03 9.30654e+00 6.49891e+00 9.25838e+00 6.45448e+00 3.04578e+02 1.00000e+03 4.02488e+02 3.16087e+03
1.30842e+03 2.31534e+03 1.91752e-01 1.42897e+03 9.26554e+00 6.48005e+00 9.21650e+00 6.43465e+00 2.97278e+02 1.00000e+03 3.93452e+02 3.14008e+03
1.28359e+03 2.31079e+03 1.59172e-01 1.42310e+03 9.23350e+00 6.46495e+00 9.18348e+00 6.41850e+00 2.89887e+02 1.00000e+03 3.84444e+02 3.11899e+03
1.25875e+03 2.30629e+03 1.98395e-01 1.42077e+03 9.19431e+00 6.44627e+00 9.14329e+00 6.39875e+00 2.82526e+02 1.00000e+03 3.75315e+02 3.09771e+03
1.23392e+03 2.30172e+03 2.51472e-01 1.41911e+03 9.15387e+00 6.42656e+00 9.10182e+00 6.37794e+00 2.75273e+02 1.00000e+03 3.66273e+02 3.07622e+03
1.20909e+03 2.29690e+03 2.88195e-01 1.41661e+03 9.11474e+00 6.40729e+00 9.06163e+00 6.35753e+00 2.68182e+02 1.00000e+03 3.57407e+02 3.05441e+03
1.18426e+03 2.29174e+03 1.90837e-01 1.40729e+03 9.08619e+00 6.39472e+00 9.03194e+00 6.34375e+00 2.61294e+02 1.00000e+03 3.48789e+02 3.03225e+03
1.15943e+03 2.28630e+03 1.37604e-01 1.40026e+03 9.05524e+00 6.38103e+00 8.99982e+00 6.32883e+00 2.54604e+02 1.00000e+03 3.40321e+02 3.00985e+03
1.13461e+03 2.28087e+03 1.39240e-01 1.39566e+03 9.02885e+00 6.37012e+00 8.97219e+00 6.31661e+00 2.47955e+02 1.00000e+03 3.31897e+02 2.98723e+03
1.10978e+03 2.27538e+03 2.28343e-01 1.39550e+03 8.99168e+00 6.35156e+00 8.93379e+00 6.29675e+00 2.41324e+02 1.00000e+03 3.23460e+02 2.96422e+03
1.08496e+03 2.26974e+03 2.61602e-01 1.39265e+03 8.95429e+00 6.33317e+00 8.89510e+00 6.27699e+00 2.34761e+02 1.00000e+03 3.15045e+02 2.94083e+03
1.06014e+03 2.26390e+03 9.48910e-02 1.38031e+03 8.91675e+00 6.31774e+00 8.85617e+00 6.26011e+00 2.28334e+02 1.00000e+03 3.06553e+02 2.91715e+03
1.03532e+03 2.25808e+03 1.35186e-01 1.37753e+03 8.87693e+00 6.29803e+00 8.81494e+00 6.23893e+00 2.21937e+02 1.00000e+03 2.98248e+02 2.89320e+03
1.01050e+03 2.25239e+03 1.30636e-01 1.37267e+03 8.83742e+00 6.27912e+00 8.77391e+00 6.21842e+00 2.15465e+02 1.00000e+03 2.89783e+02 2.86881e+03
9.85693e+02 2.24700e+03 1.41964e-01 1.36855e+03 8.79789e+00 6.25967e+00 8.73271e+00 6.19724e+00 2.08844e+02 1.00000e+03 2.81139e+02 2.84397e+03
9.60888e+02 2.24206e+03 9.40050e-02 1.36148e+03 8.75682e+00 6.24074e+00 8.68982e+00 6.17642e+00 2.02079e+02 1.00000e+03 2.72186e+02 2.81878e+03
9.36088e+02 2.23768e+03 2.19264e-01 1.36271e+03 8.71732e+00 6.21760e+00 8.64838e+00 6.15124e+00 1.95154e+02 1.00000e+03 2.63339e+02 2.79327e+03
9.11289e+02 2.23368e+03 1.58926e-01 1.35499e+03 8.67566e+00 6.19835e+00 8.60452e+00 6.12973e+00 1.88117e+02 1.00000e+03 2.53980e+02 2.76724e+03
8.86506e+02 2.23014e+03 9.56620e-02 1.34720e+03 8.63444e+00 6.17953e+00 8.56087e+00 6.10841e+00 1.80967e+02 1.00000e+03 2.44446e+02 2.74070e+03
8.61728e+02 2.22705e+03 1.47049e-01 1.34493e+03 8.59464e+00 6.15734e+00 8.51850e+00 6.08354e+00 1.73761e+02 1.00000e+03 2.35071e+02 2.71370e+03
8.36962e+02 2.22406e+03 8.39170e-02 1.33621e+03 8.54724e+00 6.13080e+00 8.46838e+00 6.05420e+00 1.66682e+02 1.00000e+03 2.25754e+02 2.68634e+03
8.12206e+02 2.21977e+03 1.27769e-01 1.32182e+03 8.44227e+00 6.01266e+00 8.36232e+00 5.93447e+00 1.60138e+02 1.00000e+03 2.19923e+02 2.65836e+03
7.87467e+02 2.21393e+03 2.37191e-01 1.31661e+03 8.36931e+00 5.93952e+00 8.28766e+00 5.85928e+00 1.54158e+02 1.00000e+03 2.13467e+02 2.62976e+03
7.62750e+02 2.20779e+03 2.27521e-01 1.31071e+03 8.32538e+00 5.91607e+00 8.24100e+00 5.83300e+00 1.48311e+02 1.00000e+03 2.05492e+02 2.60057e+03
7.38050e+02 2.20185e+03 1.96544e-01 1.30248e+03 8.27548e+00 5.88552e+00 8.18829e+00 5.79948e+00 1.42464e+02 1.00000e+03 1.97649e+02 2.57087e+03
7.13377e+02 2.19675e+03 1.01294e-01 1.29712e+03 8.25444e+00 5.90251e+00 8.16305e+00 5.81240e+00 1.36420e+02 1.00000e+03 1.88118e+02 2.54049e+03
6.88732e+02 2.19259e+03 1.58829e-01 1.29155e+03 8.19978e+00 5.85559e+00 8.10514e+00 5.76193e+00 1.30208e+02 1.00000e+03 1.80437e+02 2.50949e+03
6.64125e+02 2.18912e+03 2.48078e-01 1.27804e+03 8.14178e+00 5.76526e+00 8.03812e+00 5.66142e+00 1.15630e+02 1.00000e+03 1.63578e+02 2.47834e+03
6.39563e+02 2.18501e+03 3.15469e-01 1.23255e+03 7.97986e+00 5.49612e+00 7.85933e+00 5.37152e+00 9.18692e+01 1.00000e+03 1.37888e+02 2.44863e+03
6.15044e+02 2.17821e+03 2.95224e-01 1.20701e+03 7.85128e+00 5.33704e+00 7.71328e+00 5.19171e+00 7.64809e+01 1.00000e+03 1.18489e+02 2.43484e+03
5.90587e+02 2.16658e+03 4.07906e-01 1.19713e+03 7.75655e+00 5.22425e+00 7.62259e+00 5.08219e+00 7.65916e+01 1.00000e+03 1.20594e+02 2.42254e+03
5.66195e+02 2.15300e+03 2.96616e-01 1.18490e+03 7.69212e+00 5.19996e+00 7.55900e+00 5.05921e+00 7.69452e+01 1.00000e+03 1.20343e+02 2.40956e+03
5.41886e+02 2.13755e+03 2.53562e-01 1.17418e+03 7.61863e+00 5.15775e+00 7.48736e+00 5.01916e+00 7.75043e+01 1.00000e+03 1.20868e+02 2.39571e+03
5.17671e+02 2.11982e+03 2.15299e-01 1.16146e+03 7.52962e+00 5.09728e+00 7.40121e+00 4.96178e+00 7.83437e+01 1.00000e+03 1.22123e+02 2.38092e+03
4.93566e+02 2.09918e+03 1.60938e-01 1.13666e+03 7.38180e+00 5.04856e+00 7.25558e+00 4.91649e+00 7.96148e+01 1.00000e+03 1.21805e+02 2.36524e+03
4.69588e+02 2.07462e+03 1.73672e-01 1.12963e+03 7.30952e+00 5.01524e+00 7.18674e+00 4.88723e+00 8.15960e+01 1.00000e+03 1.23993e+02 2.34889e+03
4.45753e+02 2.04831e+03 2.03234e-01 1.11289e+03 7.13277e+00 4.87027e+00 7.01437e+00 4.74639e+00 8.18803e+01 1.00000e+03 1.25467e+02 2.33140e+03
4.22094e+02 2.02632e+03 1.73071e-01 1.09372e+03 6.95065e+00 4.73069e+00 6.82766e+00 4.60126e+00 7.61225e+01 1.00000e+03 1.17701e+02 2.31265e+03
3.98628e+02 2.00394e+03 1.21276e-01 1.08505e+03 6.87910e+00 4.71228e+00 6.74631e+00 4.57276e+00 7.03440e+01 1.00000e+03 1.07891e+02 2.29262e+03
3.75394e+02 1.98255e+03 1.45680e-01 1.08146e+03 6.82902e+00 4.70195e+00 6.69315e+00 4.55965e+00 6.88175e+01 1.00000e+03 1.04680e+02 2.27265e+03
3.52408e+02 1.96437e+03 1.83877e-01 1.07887e+03 6.78348e+00 4.69258e+00 6.64718e+00 4.55035e+00 6.87104e+01 1.00000e+03 1.03648e+02 2.25127e+03
3.29720e+02 1.94991e+03 1.48375e-01 1.06861e+03 6.70170e+00 4.65451e+00 6.56363e+00 4.51078e+00 6.74455e+01 1.00000e+03 1.01084e+02 2.22834e+03
3.07351e+02 1.93604e+03 1.82926e-01 1.06273e+03 6.61300e+00 4.58300e+00 6.47388e+00 4.43780e+00 6.57349e+01 1.00000e+03 9.89950e+01 2.20377e+03
2.85352e+02 1.92373e+03 1.69101e-01 1.05663e+03 6.54594e+00 4.56598e+00 6.40175e+00 4.41610e+00 6.34456e+01 1.00000e+03 9.45516e+01 2.17779e+03
2.63750e+02 1.91238e+03 1.35119e-01 1.04955e+03 6.47326e+00 4.54863e+00 6.32231e+00 4.39243e+00 6.06451e+01 1.00000e+03 8.93066e+01 2.14980e+03
2.42583e+02 1.90137e+03 7.81640e-02 1.04134e+03 6.39317e+00 4.52945e+00 6.23375e+00 4.36534e+00 5.74840e+01 1.00000e+03 8.35191e+01 2.11956e+03
2.21901e+02 1.88949e+03 9.34780e-02 1.03681e+03 6.33465e+00 4.51579e+00 6.16546e+00 4.34227e+00 5.41972e+01 1.00000e+03 7.79753e+01 2.08680e+03
2.01726e+02 1.87539e+03 9.87200e-02 1.03108e+03 6.28166e+00 4.50913e+00 6.10185e+00 4.32555e+00 5.11518e+01 1.00000e+03 7.27581e+01 2.05220e+03
1.82097e+02 1.85487e+03 9.16320e-02 1.02448e+03 6.22981e+00 4.50563e+00 6.04057e+00 4.31346e+00 4.88291e+01 1.00000e+03 6.85607e+01 2.01462e+03
1.63035e+02 1.82633e+03 1.55167e-01 1.02248e+03 6.16911e+00 4.48611e+00 5.97382e+00 4.28859e+00 4.73029e+01 1.00000e+03 6.57880e+01 1.97345e+03
1.44575e+02 1.78549e+03 1.21148e-01 1.01605e+03 6.12808e+00 4.48093e+00 5.93129e+00 4.28284e+00 4.71112e+01 1.00000e+03 6.48539e+01 1.92805e+03
1.26724e+02 1.72773e+03 4.58910e-02 1.00818e+03 6.08695e+00 4.48403e+00 5.89618e+00 4.29337e+00 4.89824e+01 1.00000e+03 6.64527e+01 1.87748e+03
1.09498e+02 1.64915e+03 4.49980e-02 1.00463e+03 6.05347e+00 4.49181e+00 5.87888e+00 4.31872e+00 5.40475e+01 1.00000e+03 7.22081e+01 1.82056e+03
9.29033e+01 1.54814e+03 0.00000e+00 1.00331e+03 6.05291e+00 4.53102e+00 5.90286e+00 4.38388e+00 6.41345e+01 1.00000e+03 8.40163e+01 1.75553e+03
7.69398e+01 1.42411e+03 0.00000e+00 1.00316e+03 6.05281e+00 4.56623e+00 5.93835e+00 4.45546e+00 8.58517e+01 1.00000e+03 1.10133e+02 1.68775e+03
6.16048e+01 1.27854e+03 0.00000e+00 1.00406e+03 6.06501e+00 4.61083e+00 5.99230e+00 4.54196e+00 1.39430e+02 1.00000e+03 1.73725e+02 1.62400e+03
4.68871e+01 1.11233e+03 0.00000e+00 1.00563e+03 6.08524e+00 4.66290e+00 6.04949e+00 4.63060e+00 3.00659e+02 1.00000e+03 3.54484e+02 1.56284e+03
3.27703e+01 9.25928e+02 1.38900e-03 1.00804e+03 6.11482e+00 4.72178e+00 6.10258e+00 4.71242e+00 1.05034e+03 1.00000e+03 1.03961e+03 1.50414e+03
1.92405e+01 7.10765e+02 5.93748e-01 9.89934e+02 5.84616e+00 4.45829e+00 5.84259e+00 4.45747e+00 1.13100e+04 1.00000e+03 3.41129e+03 1.45096e+03
6.27568e+00 4.47909e+02 1.00000e+00 9.93895e+02 5.69869e+00 4.34619e+00 5.69602e+00 4.34619e+00 6.05126e+06 1.00000e+03 4.45268e+03 1.40804e+03
