# depth (km), T (K), c, rho (kg/m^3), elastic_Vp (km/s), elastic_Vs (km/s), anelastic_Vp (km/s), anelastic_Vs (km/s), Q_S, Q_K, Q_P, T_solidus (K)
2.88372e+03 3.86399e+03 1.00000e+00 1.69351e+03 1.09729e+01 7.09745e+00 1.08381e+01 6.95290e+00 1.02258e+02 1.00000e+03 1.69570e+02 4.18305e+03
2.87076e+03 3.84492e+03 1.00000e+00 1.69212e+03 1.09617e+01 7.09547e+00 1.08286e+01 6.95289e+00 1.03642e+02 1.00000e+03 1.71480e+02 4.17566e+03
2.85723e+03 3.82486e+03 1.00000e+00 1.69043e+03 1.09484e+01 7.09256e+00 1.08170e+01 6.95208e+00 1.05149e+02 1.00000e+03 1.73552e+02 4.16804e+03
2.84311e+03 3.80382e+03 1.00000e+00 1.68869e+03 1.09346e+01 7.08960e+00 1.08051e+01 6.95132e+00 1.06773e+02 1.00000e+03 1.75780e+02 4.16006e+03
2.82840e+03 3.78184e+03 1.00000e+00 1.68682e+03 1.09198e+01 7.08628e+00 1.07921e+01 6.95028e+00 1.08513e+02 1.00000e+03 1.78159e+02 4.15169e+03
2.81306e+03 3.75900e+03 1.00000e+00 1.68496e+03 1.09050e+01 7.08316e+00 1.07793e+01 6.94950e+00 1.10367e+02 1.00000e+03 1.80689e+02 4.14294e+03
2.79710e+03 3.73539e+03 1.00000e+00 1.68296e+03 1.08891e+01 7.07963e+00 1.07654e+01 6.94837e+00 1.12328e+02 1.00000e+03 1.83356e+02 4.13379e+03
2.78050e+03 3.71104e+03 9.58916e-01 1.67843e+03 1.08791e+01 7.07299e+00 1.07575e+01 6.94422e+00 1.14399e+02 1.00000e+03 1.86465e+02 4.12423e+03
2.76328e+03 3.68611e+03 9.41298e-01 1.67529e+03 1.08650e+01 7.06806e+00 1.07457e+01 6.94178e+00 1.16573e+02 1.00000e+03 1.89534e+02 4.11432e+03
2.74543e+03 3.66063e+03 8.56696e-01 1.66821e+03 1.08616e+01 7.05866e+00 1.07445e+01 6.93497e+00 1.18854e+02 1.00000e+03 1.93247e+02 4.10407e+03
2.72696e+03 3.63464e+03 9.04833e-01 1.66866e+03 1.08349e+01 7.05734e+00 1.07198e+01 6.93611e+00 1.21245e+02 1.00000e+03 1.96083e+02 4.09349e+03
2.70790e+03 3.60838e+03 9.22348e-01 1.66726e+03 1.08128e+01 7.05377e+00 1.06998e+01 6.93502e+00 1.23710e+02 1.00000e+03 1.99233e+02 4.08253e+03
2.68827e+03 3.58170e+03 6.96539e-01 1.65182e+03 1.08301e+01 7.03485e+00 1.07198e+01 6.91882e+00 1.26273e+02 1.00000e+03 2.04387e+02 4.07118e+03
2.66810e+03 3.55521e+03 9.46556e-01 1.66353e+03 1.07682e+01 7.04481e+00 1.06593e+01 6.93094e+00 1.28847e+02 1.00000e+03 2.05829e+02 4.05947e+03
2.64742e+03 3.52881e+03 6.92625e-01 1.64629e+03 1.07878e+01 7.02363e+00 1.06814e+01 6.91236e+00 1.31469e+02 1.00000e+03 2.11244e+02 4.04755e+03
2.62625e+03 3.50223e+03 6.44272e-01 1.64084e+03 1.07738e+01 7.01510e+00 1.06695e+01 6.90620e+00 1.34164e+02 1.00000e+03 2.15140e+02 4.03528e+03
2.60465e+03 3.47575e+03 6.86433e-01 1.64048e+03 1.07445e+01 7.01166e+00 1.06420e+01 6.90498e+00 1.36885e+02 1.00000e+03 2.18326e+02 4.02267e+03
2.58265e+03 3.44946e+03 6.33545e-01 1.63462e+03 1.07299e+01 7.00229e+00 1.06293e+01 6.89784e+00 1.39620e+02 1.00000e+03 2.22260e+02 4.00974e+03
2.56028e+03 3.42326e+03 6.54965e-01 1.63290e+03 1.07027e+01 6.99689e+00 1.06039e+01 6.89456e+00 1.42403e+02 1.00000e+03 2.25641e+02 3.99661e+03
2.53759e+03 3.39716e+03 6.99156e-01 1.63246e+03 1.06719e+01 6.99261e+00 1.05748e+01 6.89234e+00 1.45239e+02 1.00000e+03 2.28888e+02 3.98332e+03
2.51461e+03 3.37090e+03 6.39066e-01 1.62605e+03 1.06569e+01 6.98238e+00 1.05617e+01 6.88423e+00 1.48165e+02 1.00000e+03 2.33060e+02 3.96976e+03
2.49137e+03 3.34423e+03 6.05945e-01 1.62110e+03 1.06370e+01 6.97345e+00 1.05436e+01 6.87742e+00 1.51236e+02 1.00000e+03 2.37185e+02 3.95595e+03
2.46791e+03 3.31725e+03 6.10940e-01 1.61837e+03 1.06116e+01 6.96690e+00 1.05200e+01 6.87295e+00 1.54452e+02 1.00000e+03 2.41178e+02 3.94193e+03
2.44425e+03 3.28957e+03 4.99219e-01 1.60904e+03 1.06035e+01 6.95431e+00 1.05139e+01 6.86261e+00 1.57942e+02 1.00000e+03 2.46444e+02 3.92788e+03
2.42041e+03 3.26121e+03 6.19583e-01 1.61263e+03 1.05593e+01 6.95318e+00 1.04714e+01 6.86362e+00 1.61690e+02 1.00000e+03 2.50158e+02 3.91363e+03
2.39643e+03 3.23215e+03 5.58270e-01 1.60608e+03 1.05427e+01 6.94324e+00 1.04568e+01 6.85599e+00 1.65720e+02 1.00000e+03 2.55666e+02 3.89917e+03
2.37233e+03 3.20220e+03 5.57247e-01 1.60291e+03 1.05169e+01 6.93642e+00 1.04331e+01 6.85150e+00 1.70113e+02 1.00000e+03 2.61131e+02 3.88451e+03
2.34811e+03 3.17124e+03 4.15097e-01 1.59185e+03 1.05115e+01 6.92317e+00 1.04299e+01 6.84077e+00 1.74980e+02 1.00000e+03 2.68306e+02 3.86989e+03
2.32381e+03 3.13906e+03 3.81025e-01 1.58683e+03 1.04898e+01 6.91524e+00 1.04104e+01 6.83540e+00 1.80382e+02 1.00000e+03 2.75260e+02 3.85510e+03
2.29941e+03 3.10607e+03 4.46454e-01 1.58740e+03 1.04541e+01 6.91207e+00 1.03769e+01 6.83479e+00 1.86264e+02 1.00000e+03 2.81971e+02 3.84013e+03
2.27496e+03 3.07247e+03 4.59554e-01 1.58500e+03 1.04255e+01 6.90641e+00 1.03506e+01 6.83173e+00 1.92613e+02 1.00000e+03 2.89628e+02 3.82500e+03
2.25044e+03 3.03831e+03 3.07303e-01 1.57353e+03 1.04205e+01 6.89419e+00 1.03480e+01 6.82223e+00 1.99511e+02 1.00000e+03 2.99258e+02 3.80989e+03
2.22587e+03 3.00372e+03 2.78826e-01 1.56888e+03 1.03976e+01 6.88723e+00 1.03274e+01 6.81791e+00 2.06934e+02 1.00000e+03 3.08451e+02 3.79465e+03
2.20127e+03 2.96908e+03 2.75960e-01 1.56556e+03 1.03703e+01 6.88100e+00 1.03024e+01 6.81428e+00 2.14791e+02 1.00000e+03 3.17865e+02 3.77925e+03
2.17662e+03 2.93490e+03 3.31480e-01 1.56548e+03 1.03354e+01 6.87702e+00 1.02696e+01 6.81277e+00 2.22914e+02 1.00000e+03 3.27025e+02 3.76369e+03
2.15195e+03 2.90141e+03 2.49581e-01 1.55791e+03 1.03194e+01 6.86794e+00 1.02557e+01 6.80609e+00 2.31277e+02 1.00000e+03 3.37496e+02 3.74814e+03
2.12725e+03 2.86911e+03 2.52772e-01 1.55485e+03 1.02908e+01 6.86131e+00 1.02290e+01 6.80167e+00 2.39620e+02 1.00000e+03 3.47115e+02 3.73248e+03
2.10253e+03 2.83856e+03 3.08406e-01 1.55466e+03 1.02555e+01 6.85618e+00 1.01955e+01 6.79852e+00 2.47628e+02 1.00000e+03 3.55797e+02 3.71667e+03
2.07779e+03 2.81007e+03 2.94412e-01 1.55066e+03 1.02295e+01 6.84826e+00 1.01710e+01 6.79234e+00 2.55066e+02 1.00000e+03 3.64265e+02 3.70069e+03
2.05304e+03 2.78397e+03 2.87632e-01 1.54690e+03 1.02015e+01 6.83968e+00 1.01444e+01 6.78525e+00 2.61722e+02 1.00000e+03 3.71654e+02 3.68471e+03
2.02827e+03 2.76012e+03 2.64802e-01 1.54223e+03 1.01754e+01 6.83010e+00 1.01193e+01 6.77693e+00 2.67510e+02 1.00000e+03 3.78079e+02 3.66863e+03
2.00349e+03 2.73863e+03 3.60147e-01 1.54391e+03 1.01343e+01 6.82319e+00 1.00791e+01 6.77099e+00 2.72249e+02 1.00000e+03 3.82318e+02 3.65238e+03
1.97871e+03 2.71887e+03 1.78011e-01 1.53069e+03 1.01287e+01 6.80918e+00 1.00742e+01 6.75783e+00 2.76159e+02 1.00000e+03 3.87678e+02 3.63597e+03
1.95391e+03 2.70055e+03 1.69966e-01 1.52668e+03 1.00996e+01 6.79875e+00 1.00458e+01 6.74807e+00 2.79392e+02 1.00000e+03 3.90873e+02 3.61954e+03
1.92911e+03 2.68377e+03 3.42879e-01 1.53225e+03 1.00478e+01 6.79122e+00 9.99436e+00 6.74104e+00 2.81821e+02 1.00000e+03 3.91815e+02 3.60300e+03
1.90431e+03 2.66794e+03 2.71363e-01 1.52477e+03 1.00264e+01 6.77872e+00 9.97335e+00 6.72896e+00 2.83702e+02 1.00000e+03 3.93889e+02 3.58630e+03
1.87950e+03 2.65249e+03 1.84989e-01 1.51658e+03 1.00071e+01 6.76644e+00 9.95439e+00 6.71705e+00 2.85328e+02 1.00000e+03 3.95743e+02 3.56942e+03
1.85468e+03 2.63716e+03 2.34350e-01 1.51558e+03 9.97099e+00 6.75601e+00 9.91863e+00 6.70697e+00 2.86895e+02 1.00000e+03 3.96588e+02 3.55250e+03
1.82986e+03 2.62177e+03 1.48802e-01 1.50734e+03 9.95040e+00 6.74371e+00 9.89838e+00 6.69503e+00 2.88484e+02 1.00000e+03 3.98328e+02 3.53547e+03
1.80504e+03 2.60625e+03 1.05665e-01 1.50136e+03 9.92450e+00 6.73207e+00 9.87280e+00 6.68374e+00 2.90090e+02 1.00000e+03 3.99781e+02 3.51826e+03
1.78022e+03 2.59104e+03 2.50424e-01 1.50524e+03 9.87624e+00 6.72132e+00 9.82480e+00 6.67329e+00 2.91463e+02 1.00000e+03 3.99805e+02 3.50086e+03
1.75539e+03 2.57629e+03 1.92599e-01 1.49843e+03 9.85162e+00 6.70920e+00 9.80042e+00 6.66144e+00 2.92559e+02 1.00000e+03 4.00746e+02 3.48341e+03
1.73057e+03 2.56209e+03 1.83277e-01 1.49426e+03 9.82195e+00 6.69752e+00 9.77093e+00 6.64996e+00 2.93280e+02 1.00000e+03 4.00970e+02 3.46583e+03
1.70574e+03 2.54850e+03 1.29724e-01 1.48772e+03 9.79686e+00 6.68564e+00 9.74597e+00 6.63820e+00 2.93561e+02 1.00000e+03 4.00920e+02 3.44806e+03
1.68091e+03 2.53565e+03 1.70384e-01 1.48602e+03 9.76034e+00 6.67302e+00 9.70949e+00 6.62564e+00 2.93290e+02 1.00000e+03 3.99721e+02 3.43009e+03
1.65608e+03 2.52349e+03 1.94690e-01 1.48341e+03 9.72551e+00 6.66003e+00 9.67463e+00 6.61263e+00 2.92566e+02 1.00000e+03 3.98102e+02 3.41204e+03
1.63125e+03 2.51189e+03 1.78320e-01 1.47866e+03 9.69494e+00 6.64705e+00 9.64398e+00 6.59955e+00 2.91438e+02 1.00000e+03 3.96222e+02 3.39386e+03
1.60641e+03 2.50070e+03 1.79779e-01 1.47481e+03 9.66221e+00 6.63372e+00 9.61112e+00 6.58607e+00 2.89950e+02 1.00000e+03 3.93842e+02 3.37546e+03
1.58158e+03 2.48969e+03 1.86824e-01 1.47132e+03 9.62941e+00 6.62047e+00 9.57815e+00 6.57263e+00 2.88250e+02 1.00000e+03 3.91201e+02 3.35684e+03
1.55675e+03 2.47864e+03 1.78578e-01 1.46702e+03 9.59805e+00 6.60732e+00 9.54661e+00 6.55930e+00 2.86524e+02 1.00000e+03 3.88589e+02 3.33812e+03
1.53192e+03 2.46742e+03 2.27867e-01 1.46561e+03 9.55998e+00 6.59274e+00 9.50837e+00 6.54454e+00 2.84831e+02 1.00000e+03 3.85783e+02 3.31926e+03
1.50708e+03 2.45582e+03 1.87196e-01 1.45953e+03 9.53094e+00 6.57981e+00 9.47917e+00 6.53143e+00 2.83257e+02 1.00000e+03 3.83440e+02 3.30017e+03
1.48225e+03 2.44384e+03 2.75288e-01 1.46011e+03 9.48891e+00 6.56400e+00 9.43701e+00 6.51549e+00 2.81792e+02 1.00000e+03 3.80783e+02 3.28083e+03
1.45742e+03 2.43128e+03 1.16309e-01 1.44801e+03 9.47176e+00 6.55457e+00 9.41974e+00 6.50593e+00 2.80618e+02 1.00000e+03 3.79239e+02 3.26136e+03
1.43258e+03 2.41824e+03 1.37251e-01 1.44520e+03 9.43676e+00 6.54081e+00 9.38468e+00 6.49210e+00 2.79649e+02 1.00000e+03 3.77357e+02 3.24173e+03
1.40775e+03 2.40489e+03 1.42898e-01 1.44150e+03 9.40242e+00 6.52704e+00 9.35028e+00 6.47827e+00 2.78749e+02 1.00000e+03 3.75585e+02 3.22184e+03
1.38292e+03 2.39141e+03 1.86854e-01 1.43976e+03 9.36435e+00 6.51188e+00 9.31216e+00 6.46306e+00 2.77796e+02 1.00000e+03 3.73662e+02 3.20168e+03
1.35808e+03 2.37801e+03 1.88835e-01 1.43585e+03 9.33008e+00 6.49786e+00 9.27780e+00 6.44895e+00 2.76713e+02 1.00000e+03 3.71692e+02 3.18137e+03
1.33325e+03 2.36485e+03 1.98296e-01 1.43229e+03 9.29490e+00 6.48334e+00 9.24251e+00 6.43431e+00 2.75403e+02 1.00000e+03 3.69445e+02 3.16087e+03
1.30842e+03 2.35204e+03 1.68907e-01 1.42680e+03 9.26368e+00 6.47047e+00 9.21109e+00 6.42124e+00 2.73733e+02 1.00000e+03 3.66853e+02 3.14008e+03
1.28359e+03 2.33994e+03 1.47334e-01 1.42169e+03 9.23141e+00 6.45707e+00 9.17853e+00 6.40753e+00 2.71488e+02 1.00000e+03 3.63572e+02 3.11899e+03
1.25875e+03 2.32876e+03 1.04003e-01 1.41533e+03 9.19988e+00 6.44397e+00 9.14659e+00 6.39401e+00 2.68600e+02 1.00000e+03 3.59547e+02 3.09771e+03
1.23392e+03 2.31843e+03 9.44380e-02 1.41066e+03 9.16508e+00 6.42909e+00 9.11128e+00 6.37858e+00 2.65126e+02 1.00000e+03 3.54792e+02 3.07622e+03
1.20909e+03 2.30873e+03 1.59609e-01 1.40975e+03 9.12387e+00 6.41016e+00 9.06949e+00 6.35904e+00 2.61149e+02 1.00000e+03 3.49402e+02 3.05441e+03
1.18426e+03 2.29942e+03 1.83010e-01 1.40668e+03 9.08594e+00 6.39283e+00 9.03088e+00 6.34099e+00 2.56827e+02 1.00000e+03 3.43643e+02 3.03225e+03
1.15943e+03 2.29036e+03 1.77894e-01 1.40218e+03 9.05162e+00 6.37759e+00 8.99579e+00 6.32495e+00 2.52296e+02 1.00000e+03 3.37651e+02 3.00985e+03
1.13461e+03 2.28127e+03 8.28350e-02 1.39295e+03 9.02875e+00 6.37046e+00 8.97205e+00 6.31690e+00 2.47734e+02 1.00000e+03 3.31606e+02 2.98723e+03
1.10978e+03 2.27234e+03 8.90830e-02 1.38892e+03 8.99176e+00 6.35389e+00 8.93419e+00 6.29943e+00 2.42972e+02 1.00000e+03 3.25270e+02 2.96422e+03
1.08496e+03 2.26347e+03 1.16674e-01 1.38590e+03 8.95458e+00 6.33684e+00 8.89608e+00 6.28141e+00 2.38074e+02 1.00000e+03 3.18780e+02 2.94083e+03
1.06014e+03 2.25457e+03 1.44763e-01 1.38298e+03 8.91812e+00 6.31996e+00 8.85863e+00 6.26351e+00 2.33132e+02 1.00000e+03 3.12244e+02 2.91715e+03
1.03532e+03 2.24566e+03 1.00268e-01 1.37623e+03 8.87827e+00 6.30249e+00 8.81775e+00 6.24496e+00 2.28159e+02 1.00000e+03 3.05531e+02 2.89320e+03
1.01050e+03 2.23688e+03 9.57540e-02 1.37147e+03 8.83914e+00 6.28467e+00 8.77750e+00 6.22598e+00 2.23016e+02 1.00000e+03 2.98656e+02 2.86881e+03
9.85693e+02 2.22818e+03 1.92914e-01 1.37158e+03 8.80073e+00 6.26477e+00 8.73791e+00 6.20485e+00 2.17738e+02 1.00000e+03 2.91772e+02 2.84397e+03
9.60888e+02 2.21940e+03 1.83878e-01 1.36650e+03 8.76066e+00 6.24623e+00 8.69657e+00 6.18500e+00 2.12449e+02 1.00000e+03 2.84689e+02 2.81878e+03
9.36088e+02 2.21058e+03 1.75306e-01 1.36144e+03 8.72045e+00 6.22759e+00 8.65503e+00 6.16498e+00 2.07156e+02 1.00000e+03 2.77585e+02 2.79327e+03
9.11289e+02 2.20161e+03 9.07680e-02 1.35273e+03 8.67918e+00 6.21077e+00 8.61230e+00 6.14668e+00 2.01833e+02 1.00000e+03 2.70266e+02 2.76724e+03
8.86506e+02 2.19240e+03 1.41333e-01 1.35061e+03 8.64029e+00 6.19106e+00 8.57193e+00 6.12545e+00 1.96528e+02 1.00000e+03 2.63247e+02 2.74070e+03
8.61728e+02 2.18264e+03 1.41058e-01 1.34608e+03 8.60081e+00 6.17272e+00 8.53093e+00 6.10555e+00 1.91403e+02 1.00000e+03 2.56323e+02 2.71370e+03
8.36962e+02 2.17189e+03 1.51061e-01 1.34183e+03 8.55983e+00 6.15264e+00 8.48849e+00 6.08399e+00 1.86650e+02 1.00000e+03 2.49888e+02 2.68634e+03
8.12206e+02 2.16038e+03 1.40782e-01 1.32655e+03 8.46253e+00 6.04948e+00 8.39096e+00 5.98029e+00 1.82081e+02 1.00000e+03 2.46263e+02 2.65836e+03
7.87467e+02 2.15170e+03 1.06177e-01 1.31550e+03 8.39721e+00 5.99461e+00 8.32418e+00 5.92378e+00 1.76258e+02 1.00000e+03 2.39483e+02 2.62976e+03
7.62750e+02 2.14192e+03 1.15685e-01 1.31109e+03 8.35510e+00 5.97381e+00 8.28013e+00 5.90098e+00 1.70815e+02 1.00000e+03 2.32086e+02 2.60057e+03
7.38050e+02 2.13166e+03 1.11463e-01 1.30462e+03 8.30660e+00 5.94473e+00 8.22974e+00 5.86993e+00 1.65509e+02 1.00000e+03 2.25066e+02 2.57087e+03
7.13377e+02 2.12184e+03 1.35850e-01 1.29976e+03 8.25844e+00 5.91447e+00 8.17947e+00 5.83746e+00 1.59967e+02 1.00000e+03 2.17808e+02 2.54049e+03
6.88732e+02 2.11177e+03 1.16458e-01 1.29492e+03 8.22154e+00 5.90325e+00 8.13999e+00 5.82366e+00 1.54464e+02 1.00000e+03 2.09957e+02 2.50949e+03
6.64125e+02 2.10188e+03 1.47372e-01 1.28449e+03 8.17610e+00 5.85038e+00 8.08474e+00 5.76029e+00 1.35233e+02 1.00000e+03 1.86377e+02 2.47834e+03
6.39563e+02 2.09042e+03 1.87060e-01 1.23336e+03 8.02666e+00 5.58590e+00 7.92206e+00 5.47955e+00 1.09385e+02 1.00000e+03 1.59806e+02 2.44863e+03
6.15044e+02 2.07728e+03 2.06550e-01 1.20754e+03 7.90537e+00 5.39373e+00 7.79448e+00 5.27870e+00 9.76550e+01 1.00000e+03 1.48473e+02 2.43484e+03
5.90587e+02 2.06160e+03 1.49533e-01 1.19202e+03 7.81353e+00 5.33334e+00 7.70521e+00 5.22109e+00 9.89586e+01 1.00000e+03 1.50233e+02 2.42254e+03
5.66195e+02 2.04978e+03 1.73356e-01 1.17985e+03 7.69839e+00 5.23070e+00 7.59269e+00 5.12084e+00 9.91572e+01 1.00000e+03 1.51694e+02 2.40956e+03
5.41886e+02 2.04013e+03 1.60628e-01 1.17019e+03 7.62243e+00 5.17712e+00 7.51730e+00 5.06778e+00 9.86092e+01 1.00000e+03 1.51002e+02 2.39571e+03
5.17671e+02 2.03117e+03 1.11748e-01 1.15427e+03 7.51909e+00 5.11173e+00 7.41429e+00 5.00275e+00 9.76808e+01 1.00000e+03 1.49423e+02 2.38092e+03
4.93566e+02 2.02065e+03 1.39565e-01 1.13714e+03 7.39573e+00 5.07346e+00 7.29031e+00 4.96448e+00 9.69572e+01 1.00000e+03 1.46112e+02 2.36524e+03
4.69588e+02 2.00991e+03 1.35844e-01 1.13006e+03 7.32666e+00 5.04556e+00 7.22069e+00 4.93626e+00 9.61403e+01 1.00000e+03 1.43991e+02 2.34889e+03
4.45753e+02 1.99783e+03 2.00447e-01 1.11747e+03 7.17651e+00 4.92094e+00 7.07175e+00 4.81246e+00 9.44685e+01 1.00000e+03 1.42667e+02 2.33140e+03
4.22094e+02 1.98449e+03 1.94999e-01 1.09637e+03 6.96761e+00 4.74751e+00 6.85850e+00 4.63350e+00 8.67194e+01 1.00000e+03 1.32994e+02 2.31265e+03
3.98628e+02 1.97319e+03 1.95749e-01 1.09106e+03 6.90992e+00 4.73178e+00 6.78948e+00 4.60577e+00 7.82048e+01 1.00000e+03 1.19480e+02 2.29262e+03
3.75394e+02 1.96264e+03 1.68220e-01 1.08360e+03 6.84127e+00 4.71166e+00 6.71350e+00 4.57822e+00 7.35357e+01 1.00000e+03 1.11509e+02 2.27265e+03
3.52408e+02 1.95176e+03 1.49689e-01 1.07683e+03 6.77597e+00 4.69275e+00 6.64497e+00 4.55639e+00 7.16726e+01 1.00000e+03 1.07721e+02 2.25127e+03
3.29720e+02 1.93994e+03 1.29664e-01 1.06807e+03 6.70192e+00 4.66099e+00 6.56790e+00 4.52181e+00 6.97415e+01 1.00000e+03 1.04143e+02 2.22834e+03
3.07351e+02 1.92586e+03 1.49017e-01 1.06136e+03 6.60810e+00 4.58673e+00 6.47322e+00 4.44631e+00 6.80286e+01 1.00000e+03 1.02036e+02 2.20377e+03
2.85352e+02 1.91181e+03 1.27657e-01 1.05487e+03 6.53763e+00 4.56730e+00 6.39873e+00 4.42329e+00 6.60511e+01 1.00000e+03 9.80246e+01 2.17779e+03
2.63750e+02 1.89854e+03 1.39113e-01 1.05016e+03 6.47917e+00 4.55403e+00 6.33469e+00 4.40477e+00 6.35462e+01 1.00000e+03 9.33964e+01 2.14980e+03
2.42583e+02 1.88543e+03 1.49923e-01 1.04552e+03 6.42143e+00 4.54093e+00 6.26997e+00 4.38501e+00 6.06562e+01 1.00000e+03 8.82959e+01 2.11956e+03
2.21901e+02 1.87145e+03 1.29095e-01 1.03921e+03 6.35287e+00 4.52542e+00 6.19315e+00 4.36176e+00 5.75876e+01 1.00000e+03 8.28359e+01 2.08680e+03
2.01726e+02 1.85662e+03 1.64327e-01 1.03455e+03 6.31529e+00 4.52635e+00 6.14580e+00 4.35332e+00 5.44820e+01 1.00000e+03 7.75988e+01 2.05220e+03
1.82097e+02 1.84348e+03 1.36083e-01 1.02716e+03 6.24483e+00 4.51099e+00 6.06251e+00 4.32581e+00 5.07329e+01 1.00000e+03 7.13372e+01 2.01462e+03
1.63035e+02 1.82446e+03 1.95599e-01 1.02442e+03 6.17363e+00 4.48429e+00 5.97981e+00 4.28810e+00 4.76023e+01 1.00000e+03 6.63369e+01 1.97345e+03
1.44575e+02 1.79562e+03 1.26645e-01 1.01606e+03 6.12393e+00 4.47698e+00 5.92053e+00 4.27207e+00 4.55037e+01 1.00000e+03 6.27049e+01 1.92805e+03
1.26724e+02 1.75230e+03 1.31854e-01 1.00935e+03 6.06698e+00 4.45701e+00 5.86098e+00 4.25031e+00 4.49087e+01 1.00000e+03 6.13361e+01 1.87748e+03
1.09498e+02 1.68455e+03 1.19962e-01 1.00270e+03 6.01319e+00 4.44946e+00 5.81674e+00 4.25377e+00 4.73539e+01 1.00000e+03 6.37489e+01 1.82056e+03
9.29033e+01 1.58691e+03 9.83780e-02 1.00107e+03 6.00243e+00 4.47836e+00 5.82979e+00 4.30805e+00 5.47658e+01 1.00000e+03 7.24110e+01 1.75553e+03
7.69398e+01 1.45759e+03 8.49970e-02 1.00105e+03 6.00773e+00 4.51944e+00 5.87623e+00 4.39140e+00 7.35119e+01 1.00000e+03 9.51496e+01 1.68775e+03
6.16048e+01 1.29828e+03 1.15915e-01 1.00148e+03 6.01101e+00 4.55378e+00 5.93137e+00 4.47784e+00 1.24890e+02 1.00000e+03 1.57185e+02 1.62400e+03
4.68871e+01 1.11182e+03 8.76340e-02 1.00380e+03 6.04779e+00 4.62343e+00 6.01248e+00 4.59152e+00 3.01770e+02 1.00000e+03 3.56760e+02 1.56284e+03
3.27703e+01 9.01076e+02 1.06400e-02 1.00862e+03 6.12004e+00 4.72688e+00 6.10995e+00 4.71962e+00 1.35593e+03 1.00000e+03 1.26389e+03 1.50414e+03
1.92405e+01 6.75334e+02 0.00000e+00 1.01249e+03 6.16853e+00 4.80380e+00 6.16557e+00 4.80332e+00 2.08251e+04 1.00000e+03 4.34394e+03 1.45096e+03
6.27568e+00 4.30762e+02 4.74966e-01 1.01080e+03 6.00244e+00 4.66024e+00 5.99998e+00 4.66024e+00 1.23484e+07 1.00000e+03 5.09287e+03 1.40804e+03
