# depth (km), T (K), c, rho (kg/m^3), elastic_Vp (km/s), elastic_Vs (km/s), anelastic_Vp (km/s), anelastic_Vs (km/s), Q_S, Q_K, Q_P, T_solidus (K)
2.88372e+03 3.85169e+03 1.00000e+00 1.69373e+03 1.09737e+01 7.10044e+00 1.08405e+01 6.95776e+00 1.03646e+02 1.00000e+03 1.71596e+02 4.18305e+03
2.87076e+03 3.80691e+03 8.65902e-01 1.68495e+03 1.09872e+01 7.09529e+00 1.08594e+01 6.95861e+00 1.08119e+02 1.00000e+03 1.78993e+02 4.17566e+03
2.85723e+03 3.76115e+03 9.83782e-01 1.69062e+03 1.09550e+01 7.10688e+00 1.08317e+01 6.97590e+00 1.12999e+02 1.00000e+03 1.85024e+02 4.16804e+03
2.84311e+03 3.71590e+03 1.00000e+00 1.69026e+03 1.09399e+01 7.11094e+00 1.08213e+01 6.98555e+00 1.18111e+02 1.00000e+03 1.92081e+02 4.16006e+03
2.82840e+03 3.67177e+03 1.00000e+00 1.68879e+03 1.09265e+01 7.11301e+00 1.08124e+01 6.99293e+00 1.23373e+02 1.00000e+03 1.99405e+02 4.15169e+03
2.81306e+03 3.62922e+03 1.00000e+00 1.68728e+03 1.09129e+01 7.11468e+00 1.08030e+01 6.99955e+00 1.28704e+02 1.00000e+03 2.06759e+02 4.14294e+03
2.79710e+03 3.58846e+03 9.33150e-01 1.68174e+03 1.09094e+01 7.11052e+00 1.08035e+01 7.00004e+00 1.34041e+02 1.00000e+03 2.14624e+02 4.13379e+03
2.78050e+03 3.54939e+03 8.79331e-01 1.67677e+03 1.09023e+01 7.10626e+00 1.08002e+01 7.00006e+00 1.39363e+02 1.00000e+03 2.22308e+02 4.12423e+03
2.76328e+03 3.51183e+03 8.56491e-01 1.67359e+03 1.08899e+01 7.10390e+00 1.07912e+01 7.00164e+00 1.44683e+02 1.00000e+03 2.29662e+02 4.11432e+03
2.74543e+03 3.47514e+03 6.53953e-01 1.66000e+03 1.09068e+01 7.08791e+00 1.08117e+01 6.98957e+00 1.50097e+02 1.00000e+03 2.38753e+02 4.10407e+03
2.72696e+03 3.43884e+03 7.36530e-01 1.66263e+03 1.08749e+01 7.09214e+00 1.07826e+01 6.99727e+00 1.55696e+02 1.00000e+03 2.45391e+02 4.09349e+03
2.70790e+03 3.40239e+03 8.30068e-01 1.66578e+03 1.08408e+01 7.09679e+00 1.07513e+01 7.00533e+00 1.61594e+02 1.00000e+03 2.52232e+02 4.08253e+03
2.68827e+03 3.36481e+03 9.86120e-01 1.67241e+03 1.07965e+01 7.10570e+00 1.07097e+01 7.01763e+00 1.68037e+02 1.00000e+03 2.59102e+02 4.07118e+03
2.66810e+03 3.32385e+03 6.07034e-01 1.64853e+03 1.08379e+01 7.07674e+00 1.07552e+01 6.99285e+00 1.75668e+02 1.00000e+03 2.72658e+02 4.05947e+03
2.64742e+03 3.27669e+03 1.40943e-01 1.61988e+03 1.08939e+01 7.04185e+00 1.08157e+01 6.96278e+00 1.85484e+02 1.00000e+03 2.90153e+02 4.04755e+03
2.62625e+03 3.22266e+03 1.06173e-01 1.61587e+03 1.08789e+01 7.04004e+00 1.08051e+01 6.96603e+00 1.98121e+02 1.00000e+03 3.06755e+02 4.03528e+03
2.60465e+03 3.16207e+03 1.56649e-01 1.61673e+03 1.08497e+01 7.04572e+00 1.07805e+01 6.97722e+00 2.14197e+02 1.00000e+03 3.26499e+02 4.02267e+03
2.58265e+03 3.09461e+03 1.05693e-01 1.61195e+03 1.08368e+01 7.04497e+00 1.07728e+01 6.98248e+00 2.34807e+02 1.00000e+03 3.52568e+02 4.00974e+03
2.56028e+03 3.01943e+03 1.38270e-02 1.60499e+03 1.08303e+01 7.04233e+00 1.07719e+01 6.98631e+00 2.61811e+02 1.00000e+03 3.86168e+02 3.99661e+03
2.53759e+03 2.93898e+03 2.35769e-01 1.61561e+03 1.07738e+01 7.06486e+00 1.07208e+01 7.01520e+00 2.96276e+02 1.00000e+03 4.23407e+02 3.98332e+03
2.51461e+03 2.85476e+03 1.24088e-01 1.60770e+03 1.07702e+01 7.06235e+00 1.07228e+01 7.01908e+00 3.39920e+02 1.00000e+03 4.73196e+02 3.96976e+03
2.49137e+03 2.76766e+03 1.47363e-01 1.60724e+03 1.07448e+01 7.07059e+00 1.07027e+01 7.03335e+00 3.95409e+02 1.00000e+03 5.31121e+02 3.95595e+03
2.46791e+03 2.68062e+03 1.08381e-01 1.60344e+03 1.07297e+01 7.07414e+00 1.06924e+01 7.04241e+00 4.64300e+02 1.00000e+03 5.99265e+02 3.94193e+03
2.44425e+03 2.59557e+03 3.80600e-03 1.59598e+03 1.07237e+01 7.07163e+00 1.06907e+01 7.04479e+00 5.48590e+02 1.00000e+03 6.76999e+02 3.92788e+03
2.42041e+03 2.51891e+03 6.39391e-01 1.63136e+03 1.05908e+01 7.16020e+00 1.05612e+01 7.13698e+00 6.42193e+02 1.00000e+03 7.46514e+02 3.91363e+03
2.39643e+03 2.45252e+03 4.08145e-01 1.61549e+03 1.06069e+01 7.13266e+00 1.05801e+01 7.11257e+00 7.39456e+02 1.00000e+03 8.24783e+02 3.89917e+03
2.37233e+03 2.39213e+03 3.90000e-04 1.58928e+03 1.06527e+01 7.07804e+00 1.06281e+01 7.06058e+00 8.44356e+02 1.00000e+03 9.02115e+02 3.88451e+03
2.34811e+03 2.34054e+03 0.00000e+00 1.58667e+03 1.06272e+01 7.07674e+00 1.06044e+01 7.06118e+00 9.47467e+02 1.00000e+03 9.68259e+02 3.86989e+03
2.32381e+03 2.29956e+03 5.69200e-03 1.58419e+03 1.06000e+01 7.07415e+00 1.05784e+01 7.05993e+00 1.03651e+03 1.00000e+03 1.02136e+03 3.85510e+03
2.29941e+03 2.26900e+03 5.84900e-02 1.58428e+03 1.05648e+01 7.07630e+00 1.05440e+01 7.06294e+00 1.10318e+03 1.00000e+03 1.05927e+03 3.84013e+03
2.27496e+03 2.24800e+03 9.37730e-02 1.58307e+03 1.05313e+01 7.07370e+00 1.05111e+01 7.06081e+00 1.14296e+03 1.00000e+03 1.08136e+03 3.82500e+03
2.25044e+03 2.23533e+03 8.45390e-02 1.57909e+03 1.05047e+01 7.06312e+00 1.04846e+01 7.05039e+00 1.15585e+03 1.00000e+03 1.08847e+03 3.80989e+03
2.22587e+03 2.22982e+03 1.07970e-01 1.57683e+03 1.04721e+01 7.05547e+00 1.04520e+01 7.04262e+00 1.14413e+03 1.00000e+03 1.08253e+03 3.79465e+03
2.20127e+03 2.23018e+03 7.41480e-02 1.57105e+03 1.04478e+01 7.03817e+00 1.04274e+01 7.02500e+00 1.11252e+03 1.00000e+03 1.06518e+03 3.77925e+03
2.17662e+03 2.23562e+03 7.80370e-02 1.56713e+03 1.04189e+01 7.02105e+00 1.03980e+01 7.00733e+00 1.06546e+03 1.00000e+03 1.03864e+03 3.76369e+03
2.15195e+03 2.24529e+03 8.11680e-02 1.56327e+03 1.03886e+01 7.00589e+00 1.03671e+01 6.99142e+00 1.00816e+03 1.00000e+03 1.00493e+03 3.74814e+03
2.12725e+03 2.25766e+03 1.38737e-01 1.56219e+03 1.03498e+01 6.99374e+00 1.03275e+01 6.97836e+00 9.46859e+02 1.00000e+03 9.66960e+02 3.73248e+03
2.10253e+03 2.27165e+03 1.68845e-01 1.55968e+03 1.03151e+01 6.97948e+00 1.02920e+01 6.96307e+00 8.85619e+02 1.00000e+03 9.26922e+02 3.71667e+03
2.07779e+03 2.28637e+03 1.54977e-01 1.55483e+03 1.02861e+01 6.96251e+00 1.02620e+01 6.94498e+00 8.27128e+02 1.00000e+03 8.86777e+02 3.70069e+03
2.05304e+03 2.30116e+03 1.50745e-01 1.55038e+03 1.02550e+01 6.94564e+00 1.02298e+01 6.92692e+00 7.73010e+02 1.00000e+03 8.47744e+02 3.68471e+03
2.02827e+03 2.31554e+03 1.07461e-01 1.54387e+03 1.02288e+01 6.92703e+00 1.02026e+01 6.90710e+00 7.23743e+02 1.00000e+03 8.10765e+02 3.66863e+03
2.00349e+03 2.32912e+03 1.06571e-01 1.53967e+03 1.01977e+01 6.91071e+00 1.01703e+01 6.88952e+00 6.79401e+02 1.00000e+03 7.75827e+02 3.65238e+03
1.97871e+03 2.34126e+03 1.45281e-01 1.53758e+03 1.01614e+01 6.89601e+00 1.01330e+01 6.87359e+00 6.40436e+02 1.00000e+03 7.43624e+02 3.63597e+03
1.95391e+03 2.35144e+03 4.04388e-01 1.54700e+03 1.00973e+01 6.88832e+00 1.00678e+01 6.86469e+00 6.07090e+02 1.00000e+03 7.13469e+02 3.61954e+03
1.92911e+03 2.35916e+03 8.11660e-01 1.56422e+03 1.00166e+01 6.88356e+00 9.98619e+00 6.85880e+00 5.79227e+02 1.00000e+03 6.86140e+02 3.60300e+03
1.90431e+03 2.36454e+03 3.33799e-01 1.53502e+03 1.00427e+01 6.85361e+00 1.00114e+01 6.82793e+00 5.55901e+02 1.00000e+03 6.68411e+02 3.58630e+03
1.87950e+03 2.36827e+03 1.16068e-01 1.51960e+03 1.00379e+01 6.83295e+00 1.00058e+01 6.80638e+00 5.35654e+02 1.00000e+03 6.51220e+02 3.56942e+03
1.85468e+03 2.37070e+03 1.76575e-01 1.51878e+03 9.99934e+00 6.81961e+00 9.96649e+00 6.79218e+00 5.17819e+02 1.00000e+03 6.33917e+02 3.55250e+03
1.82986e+03 2.37204e+03 1.16112e-01 1.51155e+03 9.97449e+00 6.80353e+00 9.94092e+00 6.77529e+00 5.01863e+02 1.00000e+03 6.18916e+02 3.53547e+03
1.80504e+03 2.37258e+03 8.28130e-02 1.50576e+03 9.94626e+00 6.78829e+00 9.91200e+00 6.75927e+00 4.87217e+02 1.00000e+03 6.04719e+02 3.51826e+03
1.78022e+03 2.37250e+03 1.30778e-01 1.50420e+03 9.90828e+00 6.77422e+00 9.87335e+00 6.74443e+00 4.73578e+02 1.00000e+03 5.90740e+02 3.50086e+03
1.75539e+03 2.37181e+03 1.29081e-01 1.50005e+03 9.87606e+00 6.75943e+00 9.84047e+00 6.72889e+00 4.60949e+02 1.00000e+03 5.77897e+02 3.48341e+03
1.73057e+03 2.37060e+03 1.38989e-01 1.49660e+03 9.84322e+00 6.74510e+00 9.80697e+00 6.71382e+00 4.49120e+02 1.00000e+03 5.65625e+02 3.46583e+03
1.70574e+03 2.36893e+03 1.19554e-01 1.49160e+03 9.81338e+00 6.73049e+00 9.77649e+00 6.69848e+00 4.37928e+02 1.00000e+03 5.54024e+02 3.44806e+03
1.68091e+03 2.36676e+03 1.52232e-01 1.48923e+03 9.77702e+00 6.71577e+00 9.73949e+00 6.68304e+00 4.27366e+02 1.00000e+03 5.42613e+02 3.43009e+03
1.65608e+03 2.36412e+03 1.45279e-01 1.48479e+03 9.74492e+00 6.70090e+00 9.70677e+00 6.66747e+00 4.17456e+02 1.00000e+03 5.31982e+02 3.41204e+03
1.63125e+03 2.36107e+03 1.54378e-01 1.48118e+03 9.71094e+00 6.68597e+00 9.67218e+00 6.65184e+00 4.08058e+02 1.00000e+03 5.21687e+02 3.39386e+03
1.60641e+03 2.35765e+03 1.22682e-01 1.47545e+03 9.68116e+00 6.67122e+00 9.64178e+00 6.63640e+00 3.99065e+02 1.00000e+03 5.11926e+02 3.37546e+03
1.58158e+03 2.35390e+03 1.14927e-01 1.47104e+03 9.64933e+00 6.65667e+00 9.60932e+00 6.62116e+00 3.90400e+02 1.00000e+03 5.02306e+02 3.35684e+03
1.55675e+03 2.34991e+03 1.20828e-01 1.46732e+03 9.61590e+00 6.64192e+00 9.57526e+00 6.60572e+00 3.82045e+02 1.00000e+03 4.92869e+02 3.33812e+03
1.53192e+03 2.34578e+03 1.36324e-01 1.46400e+03 9.58067e+00 6.62658e+00 9.53940e+00 6.58966e+00 3.73880e+02 1.00000e+03 4.83513e+02 3.31926e+03
1.50708e+03 2.34154e+03 1.18274e-01 1.45893e+03 9.54868e+00 6.61162e+00 9.50675e+00 6.57398e+00 3.65819e+02 1.00000e+03 4.74340e+02 3.30017e+03
1.48225e+03 2.33723e+03 2.10797e-01 1.45953e+03 9.50552e+00 6.59437e+00 9.46293e+00 6.55599e+00 3.57810e+02 1.00000e+03 4.64746e+02 3.28083e+03
1.45742e+03 2.33271e+03 1.25973e-01 1.45110e+03 9.48038e+00 6.58095e+00 9.43708e+00 6.54179e+00 3.50042e+02 1.00000e+03 4.56003e+02 3.26136e+03
1.43258e+03 2.32811e+03 1.50121e-01 1.44824e+03 9.44440e+00 6.56506e+00 9.40039e+00 6.52513e+00 3.42386e+02 1.00000e+03 4.46941e+02 3.24173e+03
1.40775e+03 2.32334e+03 5.57000e-02 1.43921e+03 9.41878e+00 6.55195e+00 9.37402e+00 6.51120e+00 3.34861e+02 1.00000e+03 4.38297e+02 3.22184e+03
1.38292e+03 2.31843e+03 1.28789e-01 1.43874e+03 9.37712e+00 6.53402e+00 9.33162e+00 6.49246e+00 3.27426e+02 1.00000e+03 4.29220e+02 3.20168e+03
1.35808e+03 2.31339e+03 1.85170e-01 1.43740e+03 9.33705e+00 6.51615e+00 9.29079e+00 6.47376e+00 3.20129e+02 1.00000e+03 4.20324e+02 3.18137e+03
1.33325e+03 2.30818e+03 1.45614e-01 1.43113e+03 9.30551e+00 6.50133e+00 9.25845e+00 6.45807e+00 3.13000e+02 1.00000e+03 4.11780e+02 3.16087e+03
1.30842e+03 2.30278e+03 1.10345e-01 1.42517e+03 9.27402e+00 6.48680e+00 9.22613e+00 6.44265e+00 3.05983e+02 1.00000e+03 4.03295e+02 3.14008e+03
1.28359e+03 2.29720e+03 1.53875e-01 1.42320e+03 9.23541e+00 6.46907e+00 9.18669e+00 6.42402e+00 2.99057e+02 1.00000e+03 3.94736e+02 3.11899e+03
1.25875e+03 2.29144e+03 1.36257e-01 1.41802e+03 9.20118e+00 6.45332e+00 9.15159e+00 6.40734e+00 2.92284e+02 1.00000e+03 3.86387e+02 3.09771e+03
1.23392e+03 2.28552e+03 1.14828e-01 1.41262e+03 9.16700e+00 6.43771e+00 9.11651e+00 6.39077e+00 2.85635e+02 1.00000e+03 3.78131e+02 3.07622e+03
1.20909e+03 2.27952e+03 1.68875e-01 1.41104e+03 9.12637e+00 6.41834e+00 9.07498e+00 6.37043e+00 2.79000e+02 1.00000e+03 3.69796e+02 3.05441e+03
1.18426e+03 2.27341e+03 1.30173e-01 1.40474e+03 9.09311e+00 6.40334e+00 9.04073e+00 6.35439e+00 2.72393e+02 1.00000e+03 3.61513e+02 3.03225e+03
1.15943e+03 2.26724e+03 1.16400e-01 1.39971e+03 9.05974e+00 6.38832e+00 9.00633e+00 6.33827e+00 2.65835e+02 1.00000e+03 3.53246e+02 3.00985e+03
1.13461e+03 2.26076e+03 1.45848e-01 1.39656e+03 9.03120e+00 6.37615e+00 8.97672e+00 6.32498e+00 2.59478e+02 1.00000e+03 3.45219e+02 2.98723e+03
1.10978e+03 2.25412e+03 1.00521e-01 1.39001e+03 8.99394e+00 6.35933e+00 8.93837e+00 6.30702e+00 2.53170e+02 1.00000e+03 3.37109e+02 2.96422e+03
1.08496e+03 2.24736e+03 1.26248e-01 1.38683e+03 8.95655e+00 6.34170e+00 8.89986e+00 6.28820e+00 2.46876e+02 1.00000e+03 3.29035e+02 2.94083e+03
1.06014e+03 2.24040e+03 1.34737e-01 1.38292e+03 8.91980e+00 6.32452e+00 8.86194e+00 6.26979e+00 2.40691e+02 1.00000e+03 3.21061e+02 2.91715e+03
1.03532e+03 2.23313e+03 1.48581e-01 1.37892e+03 8.88011e+00 6.30570e+00 8.82107e+00 6.24974e+00 2.34681e+02 1.00000e+03 3.13238e+02 2.89320e+03
1.01050e+03 2.22548e+03 1.47760e-01 1.37431e+03 8.84095e+00 6.28740e+00 8.78068e+00 6.23017e+00 2.28802e+02 1.00000e+03 3.05535e+02 2.86881e+03
9.85693e+02 2.21749e+03 1.42888e-01 1.36951e+03 8.80169e+00 6.26917e+00 8.74016e+00 6.21063e+00 2.23026e+02 1.00000e+03 2.97924e+02 2.84397e+03
9.60888e+02 2.20922e+03 1.58586e-01 1.36560e+03 8.76175e+00 6.25008e+00 8.69892e+00 6.19019e+00 2.17356e+02 1.00000e+03 2.90445e+02 2.81878e+03
9.36088e+02 2.20078e+03 1.38263e-01 1.35997e+03 8.72135e+00 6.23166e+00 8.65716e+00 6.17037e+00 2.11752e+02 1.00000e+03 2.82962e+02 2.79327e+03
9.11289e+02 2.19227e+03 1.99074e-01 1.35823e+03 8.68178e+00 6.21122e+00 8.61617e+00 6.14845e+00 2.06093e+02 1.00000e+03 2.75563e+02 2.76724e+03
8.86506e+02 2.18362e+03 1.65324e-01 1.35205e+03 8.64183e+00 6.19339e+00 8.57466e+00 6.12903e+00 2.00419e+02 1.00000e+03 2.67940e+02 2.74070e+03
8.61728e+02 2.17486e+03 1.52034e-01 1.34686e+03 8.60207e+00 6.17506e+00 8.53326e+00 6.10903e+00 1.94754e+02 1.00000e+03 2.60355e+02 2.71370e+03
8.36962e+02 2.16626e+03 1.32438e-01 1.34119e+03 8.56076e+00 6.15576e+00 8.49019e+00 6.08793e+00 1.89005e+02 1.00000e+03 2.52642e+02 2.68634e+03
8.12206e+02 2.15798e+03 1.61400e-02 1.32435e+03 8.48379e+00 6.08801e+00 8.41198e+00 6.01875e+00 1.83054e+02 1.00000e+03 2.46047e+02 2.65836e+03
7.87467e+02 2.15002e+03 1.14164e-01 1.31574e+03 8.39632e+00 5.99303e+00 8.32357e+00 5.92248e+00 1.76916e+02 1.00000e+03 2.40366e+02 2.62976e+03
7.62750e+02 2.14283e+03 8.62060e-02 1.31038e+03 8.35917e+00 5.98138e+00 8.28392e+00 5.90830e+00 1.70471e+02 1.00000e+03 2.31375e+02 2.60057e+03
7.38050e+02 2.13619e+03 1.00332e-01 1.30433e+03 8.30804e+00 5.94704e+00 8.23042e+00 5.87146e+00 1.63866e+02 1.00000e+03 2.22914e+02 2.57087e+03
7.13377e+02 2.12997e+03 1.01887e-01 1.29933e+03 8.26478e+00 5.92504e+00 8.18430e+00 5.84651e+00 1.57141e+02 1.00000e+03 2.13877e+02 2.54049e+03
6.88732e+02 2.12386e+03 9.46130e-02 1.29434e+03 8.22460e+00 5.90740e+00 8.14094e+00 5.82562e+00 1.50442e+02 1.00000e+03 2.04733e+02 2.50949e+03
6.64125e+02 2.11816e+03 2.15651e-01 1.28151e+03 8.15973e+00 5.80738e+00 8.06671e+00 5.71516e+00 1.31153e+02 1.00000e+03 1.82676e+02 2.47834e+03
6.39563e+02 2.11172e+03 2.67370e-01 1.23411e+03 8.01122e+00 5.55009e+00 7.90347e+00 5.43994e+00 1.04944e+02 1.00000e+03 1.54847e+02 2.44863e+03
6.15044e+02 2.10467e+03 2.12159e-01 1.20751e+03 7.89748e+00 5.38769e+00 7.77930e+00 5.26462e+00 9.11755e+01 1.00000e+03 1.39171e+02 2.43484e+03
5.90587e+02 2.09218e+03 1.74579e-01 1.18838e+03 7.77448e+00 5.27062e+00 7.65989e+00 5.15078e+00 9.15986e+01 1.00000e+03 1.41297e+02 2.42254e+03
5.66195e+02 2.08584e+03 2.14322e-01 1.18118e+03 7.69312e+00 5.21380e+00 7.57847e+00 5.09381e+00 9.04913e+01 1.00000e+03 1.39758e+02 2.40956e+03
5.41886e+02 2.07777e+03 1.68336e-01 1.16972e+03 7.61574e+00 5.16646e+00 7.50100e+00 5.04638e+00 8.96074e+01 1.00000e+03 1.38231e+02 2.39571e+03
5.17671e+02 2.06971e+03 1.42005e-01 1.15642e+03 7.52103e+00 5.10313e+00 7.40639e+00 4.98310e+00 8.85424e+01 1.00000e+03 1.36632e+02 2.38092e+03
4.93566e+02 2.06087e+03 1.93869e-01 1.13924e+03 7.39206e+00 5.05646e+00 7.27648e+00 4.93609e+00 8.74850e+01 1.00000e+03 1.33202e+02 2.36524e+03
4.69588e+02 2.05141e+03 2.40362e-01 1.13276e+03 7.31397e+00 5.00901e+00 7.19806e+00 4.88832e+00 8.64378e+01 1.00000e+03 1.31414e+02 2.34889e+03
4.45753e+02 2.03963e+03 1.95389e-01 1.11328e+03 7.13931e+00 4.87942e+00 7.02332e+00 4.75829e+00 8.38993e+01 1.00000e+03 1.28195e+02 2.33140e+03
4.22094e+02 2.02598e+03 1.92838e-01 1.09509e+03 6.95676e+00 4.73310e+00 6.83386e+00 4.60375e+00 7.62025e+01 1.00000e+03 1.17895e+02 2.31265e+03
3.98628e+02 2.01158e+03 1.89747e-01 1.08958e+03 6.89840e+00 4.71783e+00 6.76225e+00 4.57446e+00 6.85301e+01 1.00000e+03 1.05525e+02 2.29262e+03
3.75394e+02 1.99593e+03 1.22025e-01 1.07943e+03 6.81805e+00 4.69433e+00 6.67657e+00 4.54590e+00 6.58694e+01 1.00000e+03 1.00364e+02 2.27265e+03
3.52408e+02 1.97792e+03 1.71212e-01 1.07759e+03 6.77585e+00 4.68621e+00 6.63376e+00 4.53766e+00 6.57025e+01 1.00000e+03 9.93151e+01 2.25127e+03
3.29720e+02 1.95853e+03 1.97699e-01 1.07083e+03 6.71006e+00 4.65006e+00 6.56850e+00 4.50229e+00 6.55392e+01 1.00000e+03 9.87182e+01 2.22834e+03
3.07351e+02 1.93710e+03 1.62592e-01 1.06167e+03 6.60675e+00 4.58097e+00 6.46716e+00 4.43532e+00 6.55036e+01 1.00000e+03 9.85695e+01 2.20377e+03
2.85352e+02 1.91548e+03 1.79866e-01 1.05741e+03 6.55177e+00 4.56975e+00 6.41130e+00 4.42386e+00 6.52347e+01 1.00000e+03 9.71382e+01 2.17779e+03
2.63750e+02 1.89312e+03 2.00070e-01 1.05343e+03 6.49937e+00 4.56052e+00 6.35745e+00 4.41379e+00 6.47313e+01 1.00000e+03 9.53724e+01 2.14980e+03
2.42583e+02 1.86848e+03 1.36436e-01 1.04533e+03 6.42312e+00 4.54617e+00 6.27969e+00 4.39889e+00 6.42858e+01 1.00000e+03 9.32639e+01 2.11956e+03
2.21901e+02 1.83938e+03 1.28530e-01 1.04004e+03 6.36513e+00 4.53836e+00 6.22120e+00 4.39145e+00 6.43374e+01 1.00000e+03 9.21001e+01 2.08680e+03
2.01726e+02 1.80382e+03 9.23640e-02 1.03168e+03 6.31617e+00 4.54744e+00 6.17334e+00 4.40288e+00 6.55149e+01 1.00000e+03 9.20964e+01 2.05220e+03
1.82097e+02 1.75537e+03 1.39222e-01 1.02975e+03 6.26805e+00 4.54050e+00 6.13244e+00 4.40415e+00 6.93558e+01 1.00000e+03 9.62632e+01 2.01462e+03
1.63035e+02 1.69140e+03 1.52419e-01 1.02641e+03 6.22193e+00 4.53836e+00 6.09927e+00 4.41612e+00 7.73164e+01 1.00000e+03 1.05643e+02 1.97345e+03
1.44575e+02 1.61026e+03 1.15917e-01 1.02101e+03 6.19838e+00 4.54852e+00 6.09405e+00 4.44561e+00 9.20493e+01 1.00000e+03 1.23730e+02 1.92805e+03
1.26724e+02 1.51367e+03 1.12136e-01 1.01922e+03 6.18010e+00 4.57043e+00 6.09682e+00 4.48950e+00 1.17619e+02 1.00000e+03 1.54543e+02 1.87748e+03
1.09498e+02 1.40427e+03 1.32644e-01 1.01916e+03 6.16946e+00 4.59587e+00 6.10741e+00 4.53676e+00 1.61936e+02 1.00000e+03 2.07071e+02 1.82056e+03
9.29033e+01 1.28312e+03 1.14371e-01 1.01669e+03 6.15275e+00 4.62231e+00 6.11001e+00 4.58281e+00 2.43716e+02 1.00000e+03 2.99835e+02 1.75553e+03
7.69398e+01 1.15173e+03 1.61623e-01 1.01664e+03 6.13476e+00 4.64008e+00 6.10875e+00 4.61730e+00 4.24208e+02 1.00000e+03 4.91318e+02 1.68775e+03
6.16048e+01 1.01293e+03 1.21454e-01 1.01459e+03 6.13640e+00 4.67953e+00 6.12289e+00 4.66906e+00 9.30771e+02 1.00000e+03 9.45474e+02 1.62400e+03
4.68871e+01 8.68631e+02 1.23220e-02 1.01357e+03 6.17361e+00 4.75212e+00 6.16733e+00 4.74864e+00 2.84367e+03 1.00000e+03 2.05002e+03 1.56284e+03
3.27703e+01 7.18606e+02 0.00000e+00 1.01456e+03 6.19136e+00 4.79952e+00 6.18812e+00 4.79887e+00 1.51881e+04 1.00000e+03 3.97591e+03 1.50414e+03
1.92405e+01 5.64010e+02 1.36390e-02 1.01577e+03 6.20153e+00 4.83765e+00 6.19905e+00 4.83761e+00 2.33545e+05 1.00000e+03 5.20510e+03 1.45096e+03
6.27568e+00 3.94180e+02 6.24094e-01 1.02042e+03 5.99528e+00 4.65247e+00 5.99282e+00 4.65247e+00 6.95919e+07 1.00000e+03 5.07450e+03 1.40804e+03
