# depth (km), T (K), c, rho (kg/m^3), elastic_Vp (km/s), elastic_Vs (km/s), anelastic_Vp (km/s), anelastic_Vs (km/s), Q_S, Q_K, Q_P, T_solidus (K)
2.88372e+03 3.84843e+03 1.00000e+00 1.69379e+03 1.09738e+01 7.10123e+00 1.08411e+01 6.95905e+00 1.04018e+02 1.00000e+03 1.72139e+02 4.18305e+03
2.87076e+03 3.79720e+03 1.00000e+00 1.69296e+03 1.09646e+01 7.10704e+00 1.08375e+01 6.97163e+00 1.09308e+02 1.00000e+03 1.79706e+02 4.17566e+03
2.85723e+03 3.74372e+03 8.64637e-01 1.68399e+03 1.09766e+01 7.10255e+00 1.08558e+01 6.97426e+00 1.15295e+02 1.00000e+03 1.89261e+02 4.16804e+03
2.84311e+03 3.68826e+03 9.72646e-01 1.68916e+03 1.09463e+01 7.11564e+00 1.08311e+01 6.99421e+00 1.22040e+02 1.00000e+03 1.97892e+02 4.16006e+03
2.82840e+03 3.63097e+03 8.99301e-01 1.68368e+03 1.09461e+01 7.11546e+00 1.08371e+01 7.00115e+00 1.29642e+02 1.00000e+03 2.09095e+02 4.15169e+03
2.81306e+03 3.57128e+03 8.18974e-01 1.67787e+03 1.09471e+01 7.11512e+00 1.08443e+01 7.00801e+00 1.38345e+02 1.00000e+03 2.21822e+02 4.14294e+03
2.79710e+03 3.50943e+03 8.51540e-01 1.67847e+03 1.09279e+01 7.12315e+00 1.08311e+01 7.02312e+00 1.48312e+02 1.00000e+03 2.35117e+02 4.13379e+03
2.78050e+03 3.44532e+03 7.73492e-01 1.67260e+03 1.09264e+01 7.12261e+00 1.08359e+01 7.02979e+00 1.59808e+02 1.00000e+03 2.51332e+02 4.12423e+03
2.76328e+03 3.37701e+03 4.31028e-01 1.65172e+03 1.09696e+01 7.10161e+00 1.08860e+01 7.01644e+00 1.73635e+02 1.00000e+03 2.73260e+02 4.11432e+03
2.74543e+03 3.30264e+03 9.11700e-02 1.63118e+03 1.10124e+01 7.08020e+00 1.09359e+01 7.00296e+00 1.90920e+02 1.00000e+03 2.99792e+02 4.10407e+03
2.72696e+03 3.22607e+03 3.51245e-01 1.64473e+03 1.09519e+01 7.10890e+00 1.08813e+01 7.03889e+00 2.11472e+02 1.00000e+03 3.23130e+02 4.09349e+03
2.70790e+03 3.14846e+03 1.72561e-01 1.63332e+03 1.09652e+01 7.10030e+00 1.09009e+01 7.03756e+00 2.35685e+02 1.00000e+03 3.55491e+02 4.08253e+03
2.68827e+03 3.06977e+03 9.38430e-02 1.62756e+03 1.09609e+01 7.09990e+00 1.09026e+01 7.04399e+00 2.64463e+02 1.00000e+03 3.91249e+02 4.07118e+03
2.66810e+03 2.99272e+03 1.58946e-01 1.62972e+03 1.09314e+01 7.11142e+00 1.08783e+01 7.06165e+00 2.97559e+02 1.00000e+03 4.28800e+02 4.05947e+03
2.64742e+03 2.91845e+03 2.27297e-01 1.63190e+03 1.09009e+01 7.12253e+00 1.08525e+01 7.07826e+00 3.35063e+02 1.00000e+03 4.69563e+02 4.04755e+03
2.62625e+03 2.84794e+03 1.03040e-01 1.62328e+03 1.09015e+01 7.11546e+00 1.08575e+01 7.07612e+00 3.76692e+02 1.00000e+03 5.15486e+02 4.03528e+03
2.60465e+03 2.78177e+03 1.41834e-01 1.62395e+03 1.08727e+01 7.12561e+00 1.08323e+01 7.09045e+00 4.22075e+02 1.00000e+03 5.60498e+02 4.02267e+03
2.58265e+03 2.72313e+03 1.96845e-01 1.62541e+03 1.08397e+01 7.13704e+00 1.08023e+01 7.10527e+00 4.67833e+02 1.00000e+03 6.03319e+02 4.00974e+03
2.56028e+03 2.67059e+03 1.71919e-01 1.62165e+03 1.08218e+01 7.13385e+00 1.07869e+01 7.10494e+00 5.13845e+02 1.00000e+03 6.45916e+02 3.99661e+03
2.53759e+03 2.62449e+03 1.53826e-01 1.61815e+03 1.08022e+01 7.13017e+00 1.07693e+01 7.10356e+00 5.58185e+02 1.00000e+03 6.85021e+02 3.98332e+03
2.51461e+03 2.58480e+03 1.14966e-01 1.61324e+03 1.07853e+01 7.12208e+00 1.07541e+01 7.09731e+00 5.98912e+02 1.00000e+03 7.19750e+02 3.96976e+03
2.49137e+03 2.55123e+03 1.64392e-01 1.61335e+03 1.07515e+01 7.12463e+00 1.07216e+01 7.10124e+00 6.34491e+02 1.00000e+03 7.47784e+02 3.95595e+03
2.46791e+03 2.52308e+03 1.53008e-01 1.60982e+03 1.07288e+01 7.11792e+00 1.06999e+01 7.09560e+00 6.64221e+02 1.00000e+03 7.71204e+02 3.94193e+03
2.44425e+03 2.49972e+03 1.39943e-01 1.60601e+03 1.07055e+01 7.10973e+00 1.06772e+01 7.08821e+00 6.87901e+02 1.00000e+03 7.89386e+02 3.92788e+03
2.42041e+03 2.48056e+03 1.77947e-01 1.60504e+03 1.06723e+01 7.10740e+00 1.06446e+01 7.08641e+00 7.05260e+02 1.00000e+03 8.01838e+02 3.91363e+03
2.39643e+03 2.46508e+03 2.12622e-01 1.60378e+03 1.06395e+01 7.10373e+00 1.06121e+01 7.08308e+00 7.16462e+02 1.00000e+03 8.09568e+02 3.89917e+03
2.37233e+03 2.45279e+03 1.88384e-01 1.59900e+03 1.06166e+01 7.09136e+00 1.05894e+01 7.07090e+00 7.21934e+02 1.00000e+03 8.13585e+02 3.88451e+03
2.34811e+03 2.44301e+03 1.41878e-01 1.59265e+03 1.05972e+01 7.07349e+00 1.05701e+01 7.05311e+00 7.22933e+02 1.00000e+03 8.14550e+02 3.86989e+03
2.32381e+03 2.43636e+03 1.68302e-01 1.59009e+03 1.05673e+01 7.05925e+00 1.05401e+01 7.03877e+00 7.18036e+02 1.00000e+03 8.10599e+02 3.85510e+03
2.29941e+03 2.43352e+03 1.06966e-01 1.58312e+03 1.05485e+01 7.04218e+00 1.05211e+01 7.02141e+00 7.06084e+02 1.00000e+03 8.01690e+02 3.84013e+03
2.27496e+03 2.43299e+03 1.10288e-01 1.57958e+03 1.05191e+01 7.03025e+00 1.04913e+01 7.00903e+00 6.90082e+02 1.00000e+03 7.88975e+02 3.82500e+03
2.25044e+03 2.43481e+03 5.38090e-02 1.57278e+03 1.04978e+01 7.01381e+00 1.04695e+01 6.99202e+00 6.70502e+02 1.00000e+03 7.73704e+02 3.80989e+03
2.22587e+03 2.43913e+03 9.08410e-02 1.57092e+03 1.04630e+01 7.00288e+00 1.04341e+01 6.98035e+00 6.47317e+02 1.00000e+03 7.54477e+02 3.79465e+03
2.20127e+03 2.44589e+03 1.13256e-01 1.56814e+03 1.04295e+01 6.98997e+00 1.03998e+01 6.96653e+00 6.21117e+02 1.00000e+03 7.32417e+02 3.77925e+03
2.17662e+03 2.45480e+03 1.02466e-01 1.56360e+03 1.04008e+01 6.97473e+00 1.03702e+01 6.95023e+00 5.92841e+02 1.00000e+03 7.08316e+02 3.76369e+03
2.15195e+03 2.46563e+03 9.92900e-02 1.55940e+03 1.03709e+01 6.95943e+00 1.03392e+01 6.93370e+00 5.63441e+02 1.00000e+03 6.82496e+02 3.74814e+03
2.12725e+03 2.47798e+03 1.79968e-01 1.55955e+03 1.03287e+01 6.94747e+00 1.02959e+01 6.92036e+00 5.33724e+02 1.00000e+03 6.54871e+02 3.73248e+03
2.10253e+03 2.49146e+03 9.08180e-02 1.55069e+03 1.03099e+01 6.92715e+00 1.02757e+01 6.89855e+00 5.04381e+02 1.00000e+03 6.28351e+02 3.71667e+03
2.07779e+03 2.50591e+03 9.73510e-02 1.54689e+03 1.02779e+01 6.91109e+00 1.02423e+01 6.88083e+00 4.75762e+02 1.00000e+03 6.00857e+02 3.70069e+03
2.05304e+03 2.52075e+03 1.30966e-01 1.54442e+03 1.02416e+01 6.89549e+00 1.02045e+01 6.86348e+00 4.48668e+02 1.00000e+03 5.73819e+02 3.68471e+03
2.02827e+03 2.53541e+03 1.93537e-01 1.54348e+03 1.02015e+01 6.88054e+00 1.01627e+01 6.84671e+00 4.23519e+02 1.00000e+03 5.47765e+02 3.66863e+03
2.00349e+03 2.54940e+03 2.20303e-01 1.54071e+03 1.01667e+01 6.86432e+00 1.01262e+01 6.82862e+00 4.00524e+02 1.00000e+03 5.23630e+02 3.65238e+03
1.97871e+03 2.56219e+03 1.67402e-01 1.53372e+03 1.01420e+01 6.84577e+00 1.00999e+01 6.80824e+00 3.79903e+02 1.00000e+03 5.02114e+02 3.63597e+03
1.95391e+03 2.57329e+03 1.78332e-01 1.53005e+03 1.01084e+01 6.82910e+00 1.00647e+01 6.78979e+00 3.61816e+02 1.00000e+03 4.82300e+02 3.61954e+03
1.92911e+03 2.58215e+03 2.48343e-01 1.52956e+03 1.00675e+01 6.81403e+00 1.00224e+01 6.77305e+00 3.46310e+02 1.00000e+03 4.64479e+02 3.60300e+03
1.90431e+03 2.58826e+03 1.98503e-01 1.52276e+03 1.00417e+01 6.79677e+00 9.99520e+00 6.75432e+00 3.33393e+02 1.00000e+03 4.50173e+02 3.58630e+03
1.87950e+03 2.59123e+03 1.68224e-01 1.51713e+03 1.00140e+01 6.78102e+00 9.96641e+00 6.73730e+00 3.23023e+02 1.00000e+03 4.38344e+02 3.56942e+03
1.85468e+03 2.59081e+03 1.09667e-01 1.51008e+03 9.98982e+00 6.76574e+00 9.94136e+00 6.72103e+00 3.15169e+02 1.00000e+03 4.29386e+02 3.55250e+03
1.82986e+03 2.58698e+03 1.75294e-01 1.50957e+03 9.95006e+00 6.75250e+00 9.90097e+00 6.70708e+00 3.09623e+02 1.00000e+03 4.22082e+02 3.53547e+03
1.80504e+03 2.58001e+03 2.08022e-01 1.50738e+03 9.91455e+00 6.73931e+00 9.86506e+00 6.69345e+00 3.06047e+02 1.00000e+03 4.17206e+02 3.51826e+03
1.78022e+03 2.57008e+03 1.31401e-01 1.49948e+03 9.89187e+00 6.72592e+00 9.84223e+00 6.67988e+00 3.04264e+02 1.00000e+03 4.15016e+02 3.50086e+03
1.75539e+03 2.55747e+03 2.37966e-01 1.50127e+03 9.84800e+00 6.71407e+00 9.79840e+00 6.66809e+00 3.04131e+02 1.00000e+03 4.13561e+02 3.48341e+03
1.73057e+03 2.54249e+03 1.85260e-01 1.49484e+03 9.82340e+00 6.70247e+00 9.77407e+00 6.65677e+00 3.05458e+02 1.00000e+03 4.14707e+02 3.46583e+03
1.70574e+03 2.52551e+03 1.28676e-01 1.48823e+03 9.79895e+00 6.69143e+00 9.75004e+00 6.64618e+00 3.08006e+02 1.00000e+03 4.17208e+02 3.44806e+03
1.68091e+03 2.50689e+03 1.42851e-01 1.48529e+03 9.76590e+00 6.68045e+00 9.71753e+00 6.63580e+00 3.11593e+02 1.00000e+03 4.20447e+02 3.43009e+03
1.65608e+03 2.48705e+03 8.65400e-02 1.47868e+03 9.74057e+00 6.67002e+00 9.69284e+00 6.62607e+00 3.16071e+02 1.00000e+03 4.25016e+02 3.41204e+03
1.63125e+03 2.46665e+03 1.22773e-01 1.47690e+03 9.70497e+00 6.65918e+00 9.65792e+00 6.61598e+00 3.21005e+02 1.00000e+03 4.29582e+02 3.39386e+03
1.60641e+03 2.44659e+03 1.62072e-01 1.47525e+03 9.66899e+00 6.64799e+00 9.62258e+00 6.60549e+00 3.25755e+02 1.00000e+03 4.33911e+02 3.37546e+03
1.58158e+03 2.42784e+03 1.18998e-01 1.46937e+03 9.64218e+00 6.63752e+00 9.59629e+00 6.59557e+00 3.29569e+02 1.00000e+03 4.37578e+02 3.35684e+03
1.55675e+03 2.41102e+03 1.35530e-01 1.46652e+03 9.60875e+00 6.62579e+00 9.56321e+00 6.58423e+00 3.31993e+02 1.00000e+03 4.39435e+02 3.33812e+03
1.53192e+03 2.39616e+03 1.29947e-01 1.46237e+03 9.57662e+00 6.61343e+00 9.53127e+00 6.57206e+00 3.32925e+02 1.00000e+03 4.39739e+02 3.31926e+03
1.50708e+03 2.38319e+03 1.11968e-01 1.45753e+03 9.54538e+00 6.60072e+00 9.50003e+00 6.55935e+00 3.32309e+02 1.00000e+03 4.38394e+02 3.30017e+03
1.48225e+03 2.37180e+03 1.17511e-01 1.45384e+03 9.51141e+00 6.58705e+00 9.46592e+00 6.54552e+00 3.30364e+02 1.00000e+03 4.35500e+02 3.28083e+03
1.45742e+03 2.36170e+03 1.03952e-01 1.44920e+03 9.47972e+00 6.57367e+00 9.43397e+00 6.53185e+00 3.27377e+02 1.00000e+03 4.31535e+02 3.26136e+03
1.43258e+03 2.35266e+03 1.83730e-01 1.44932e+03 9.43877e+00 6.55749e+00 9.39266e+00 6.51528e+00 3.23520e+02 1.00000e+03 4.26318e+02 3.24173e+03
1.40775e+03 2.34443e+03 9.62910e-02 1.44073e+03 9.41285e+00 6.54505e+00 9.36626e+00 6.50231e+00 3.18959e+02 1.00000e+03 4.20796e+02 3.22184e+03
1.38292e+03 2.33664e+03 1.41343e-01 1.43889e+03 9.37411e+00 6.52859e+00 9.32700e+00 6.48529e+00 3.13963e+02 1.00000e+03 4.14397e+02 3.20168e+03
1.35808e+03 2.32898e+03 1.21420e-01 1.43372e+03 9.34126e+00 6.51395e+00 9.29357e+00 6.47003e+00 3.08845e+02 1.00000e+03 4.08005e+02 3.18137e+03
1.33325e+03 2.32117e+03 1.43597e-01 1.43068e+03 9.30434e+00 6.49774e+00 9.25609e+00 6.45320e+00 3.03782e+02 1.00000e+03 4.01557e+02 3.16087e+03
1.30842e+03 2.31318e+03 1.47420e-01 1.42677e+03 9.26966e+00 6.48240e+00 9.22081e+00 6.43721e+00 2.98750e+02 1.00000e+03 3.95171e+02 3.14008e+03
1.28359e+03 2.30519e+03 1.97130e-01 1.42518e+03 9.23083e+00 6.46498e+00 9.18136e+00 6.41913e+00 2.93623e+02 1.00000e+03 3.88591e+02 3.11899e+03
1.25875e+03 2.29727e+03 1.58298e-01 1.41898e+03 9.19868e+00 6.45066e+00 9.14853e+00 6.40408e+00 2.88397e+02 1.00000e+03 3.81990e+02 3.09771e+03
1.23392e+03 2.28959e+03 1.46438e-01 1.41411e+03 9.16392e+00 6.43504e+00 9.11304e+00 6.38768e+00 2.82984e+02 1.00000e+03 3.75109e+02 3.07622e+03
1.20909e+03 2.28221e+03 1.50054e-01 1.41001e+03 9.12761e+00 6.41847e+00 9.07593e+00 6.37026e+00 2.77289e+02 1.00000e+03 3.67866e+02 3.05441e+03
1.18426e+03 2.27513e+03 1.63694e-01 1.40639e+03 9.09024e+00 6.40109e+00 9.03769e+00 6.35196e+00 2.71322e+02 1.00000e+03 3.60281e+02 3.03225e+03
1.15943e+03 2.26860e+03 1.62057e-01 1.40197e+03 9.05651e+00 6.38574e+00 9.00297e+00 6.33555e+00 2.65009e+02 1.00000e+03 3.52301e+02 3.00985e+03
1.13461e+03 2.26179e+03 1.61234e-01 1.39727e+03 9.03110e+00 6.37572e+00 8.97650e+00 6.32443e+00 2.58871e+02 1.00000e+03 3.44529e+02 2.98723e+03
1.10978e+03 2.25517e+03 1.31577e-01 1.39146e+03 8.99388e+00 6.35871e+00 8.93820e+00 6.30628e+00 2.52566e+02 1.00000e+03 3.36436e+02 2.96422e+03
1.08496e+03 2.24883e+03 1.46972e-01 1.38778e+03 8.95644e+00 6.34100e+00 8.89959e+00 6.28733e+00 2.46054e+02 1.00000e+03 3.28103e+02 2.94083e+03
1.06014e+03 2.24312e+03 1.72999e-01 1.38468e+03 8.91964e+00 6.32316e+00 8.86148e+00 6.26811e+00 2.39218e+02 1.00000e+03 3.19389e+02 2.91715e+03
1.03532e+03 2.23809e+03 2.05258e-01 1.38149e+03 8.87982e+00 6.30326e+00 8.82021e+00 6.24669e+00 2.32066e+02 1.00000e+03 3.10253e+02 2.89320e+03
1.01050e+03 2.23325e+03 2.01240e-01 1.37664e+03 8.84034e+00 6.28400e+00 8.77916e+00 6.22579e+00 2.24835e+02 1.00000e+03 3.00955e+02 2.86881e+03
9.85693e+02 2.22826e+03 1.08935e-01 1.36755e+03 8.80002e+00 6.26635e+00 8.73717e+00 6.20641e+00 2.17698e+02 1.00000e+03 2.91585e+02 2.84397e+03
9.60888e+02 2.22317e+03 1.46385e-01 1.36458e+03 8.75981e+00 6.24579e+00 8.69523e+00 6.18404e+00 2.10674e+02 1.00000e+03 2.82516e+02 2.81878e+03
9.36088e+02 2.21812e+03 1.31345e-01 1.35909e+03 8.71897e+00 6.22610e+00 8.65255e+00 6.16245e+00 2.03714e+02 1.00000e+03 2.73403e+02 2.79327e+03
9.11289e+02 2.21314e+03 1.19096e-01 1.35372e+03 8.67796e+00 6.20622e+00 8.60957e+00 6.14052e+00 1.96745e+02 1.00000e+03 2.64254e+02 2.76724e+03
8.86506e+02 2.20804e+03 1.71335e-01 1.35156e+03 8.63854e+00 6.18498e+00 8.56807e+00 6.11713e+00 1.89857e+02 1.00000e+03 2.55326e+02 2.74070e+03
8.61728e+02 2.20212e+03 1.64399e-01 1.34657e+03 8.59842e+00 6.16540e+00 8.52584e+00 6.09537e+00 1.83365e+02 1.00000e+03 2.46728e+02 2.71370e+03
8.36962e+02 2.19081e+03 1.06097e-01 1.33883e+03 8.55510e+00 6.14558e+00 8.48107e+00 6.07409e+00 1.79036e+02 1.00000e+03 2.40674e+02 2.68634e+03
8.12206e+02 2.17338e+03 1.16682e-01 1.32496e+03 8.46075e+00 6.04647e+00 8.38731e+00 5.97530e+00 1.76928e+02 1.00000e+03 2.39931e+02 2.65836e+03
7.87467e+02 2.16677e+03 1.69125e-01 1.31649e+03 8.38599e+00 5.97295e+00 8.31106e+00 5.90000e+00 1.70513e+02 1.00000e+03 2.33074e+02 2.62976e+03
7.62750e+02 2.15989e+03 1.08296e-01 1.31034e+03 8.35344e+00 5.96984e+00 8.27575e+00 5.89412e+00 1.64215e+02 1.00000e+03 2.23919e+02 2.60057e+03
7.38050e+02 2.15213e+03 1.13730e-01 1.30377e+03 8.30208e+00 5.93561e+00 8.22212e+00 5.85750e+00 1.58266e+02 1.00000e+03 2.16227e+02 2.57087e+03
7.13377e+02 2.14557e+03 1.01382e-01 1.29881e+03 8.26245e+00 5.91994e+00 8.17949e+00 5.83878e+00 1.51912e+02 1.00000e+03 2.07416e+02 2.54049e+03
6.88732e+02 2.13690e+03 1.39539e-01 1.29389e+03 8.21256e+00 5.88449e+00 8.12712e+00 5.80071e+00 1.46272e+02 1.00000e+03 2.00185e+02 2.50949e+03
6.64125e+02 2.13015e+03 1.32771e-01 1.28407e+03 8.17446e+00 5.84859e+00 8.07847e+00 5.75364e+00 1.28282e+02 1.00000e+03 1.77367e+02 2.47834e+03
6.39563e+02 2.12421e+03 1.19883e-01 1.23064e+03 8.01815e+00 5.58622e+00 7.90681e+00 5.47270e+00 1.02488e+02 1.00000e+03 1.49980e+02 2.44863e+03
6.15044e+02 2.12115e+03 1.62159e-01 1.20558e+03 7.89442e+00 5.39394e+00 7.77134e+00 5.26565e+00 8.75630e+01 1.00000e+03 1.33579e+02 2.43484e+03
5.90587e+02 2.09395e+03 1.57185e-01 1.18702e+03 7.77040e+00 5.26731e+00 7.65541e+00 5.14702e+00 9.11973e+01 1.00000e+03 1.40737e+02 2.42254e+03
5.66195e+02 2.08211e+03 1.26829e-01 1.17539e+03 7.68047e+00 5.20768e+00 7.56693e+00 5.08893e+00 9.13366e+01 1.00000e+03 1.40879e+02 2.40956e+03
5.41886e+02 2.07657e+03 8.73460e-02 1.16397e+03 7.60113e+00 5.15743e+00 7.48690e+00 5.03792e+00 8.98761e+01 1.00000e+03 1.38583e+02 2.39571e+03
5.17671e+02 2.07752e+03 8.70120e-02 1.15218e+03 7.50785e+00 5.09220e+00 7.39136e+00 4.97007e+00 8.68360e+01 1.00000e+03 1.34226e+02 2.38092e+03
4.93566e+02 2.07481e+03 8.31590e-02 1.13307e+03 7.38091e+00 5.06396e+00 7.26102e+00 4.93915e+00 8.45018e+01 1.00000e+03 1.28210e+02 2.36524e+03
4.69588e+02 2.06930e+03 1.69545e-01 1.12962e+03 7.31094e+00 5.01795e+00 7.18959e+00 4.89153e+00 8.26713e+01 1.00000e+03 1.25475e+02 2.34889e+03
4.45753e+02 2.04751e+03 6.97110e-02 1.10582e+03 7.11461e+00 4.87783e+00 6.99592e+00 4.75404e+00 8.20648e+01 1.00000e+03 1.24837e+02 2.33140e+03
4.22094e+02 2.03997e+03 9.22650e-02 1.08778e+03 6.92241e+00 4.71647e+00 6.79466e+00 4.58190e+00 7.29929e+01 1.00000e+03 1.12858e+02 2.31265e+03
3.98628e+02 2.03886e+03 9.57570e-02 1.08230e+03 6.86216e+00 4.69698e+00 6.71388e+00 4.54038e+00 6.24654e+01 1.00000e+03 9.63794e+01 2.29262e+03
3.75394e+02 2.03769e+03 1.20487e-01 1.07813e+03 6.80658e+00 4.67939e+00 6.64643e+00 4.51039e+00 5.76662e+01 1.00000e+03 8.85133e+01 2.27265e+03
3.52408e+02 2.03208e+03 7.59370e-02 1.06922e+03 6.73014e+00 4.65413e+00 6.56336e+00 4.47875e+00 5.52708e+01 1.00000e+03 8.40422e+01 2.25127e+03
3.29720e+02 2.01561e+03 1.12881e-01 1.06365e+03 6.65757e+00 4.60457e+00 6.49041e+00 4.42875e+00 5.45434e+01 1.00000e+03 8.29486e+01 2.22834e+03
3.07351e+02 1.99017e+03 1.83517e-01 1.06123e+03 6.59519e+00 4.56202e+00 6.43119e+00 4.38959e+00 5.51005e+01 1.00000e+03 8.37502e+01 2.20377e+03
2.85352e+02 1.95691e+03 1.39258e-01 1.05418e+03 6.52623e+00 4.55168e+00 6.36645e+00 4.38500e+00 5.68707e+01 1.00000e+03 8.50647e+01 2.17779e+03
2.63750e+02 1.92499e+03 1.88623e-01 1.05193e+03 6.48533e+00 4.54805e+00 6.32838e+00 4.38517e+00 5.81533e+01 1.00000e+03 8.60575e+01 2.14980e+03
2.42583e+02 1.89799e+03 1.22580e-01 1.04374e+03 6.40844e+00 4.53416e+00 6.25078e+00 4.37173e+00 5.81378e+01 1.00000e+03 8.46507e+01 2.11956e+03
2.21901e+02 1.86896e+03 1.43298e-01 1.04003e+03 6.35837e+00 4.52747e+00 6.19994e+00 4.36512e+00 5.80789e+01 1.00000e+03 8.35866e+01 2.08680e+03
2.01726e+02 1.82523e+03 1.01298e-01 1.03152e+03 6.31114e+00 4.53939e+00 6.15774e+00 4.38368e+00 6.07155e+01 1.00000e+03 8.56805e+01 2.05220e+03
1.82097e+02 1.75835e+03 1.25654e-01 1.02899e+03 6.26488e+00 4.53974e+00 6.12779e+00 4.40190e+00 6.85892e+01 1.00000e+03 9.51712e+01 2.01462e+03
1.63035e+02 1.67132e+03 1.19409e-01 1.02533e+03 6.22780e+00 4.54763e+00 6.11394e+00 4.43453e+00 8.37473e+01 1.00000e+03 1.13918e+02 1.97345e+03
1.44575e+02 1.57117e+03 1.62360e-01 1.02451e+03 6.21565e+00 4.56088e+00 6.12681e+00 4.47381e+00 1.09085e+02 1.00000e+03 1.45704e+02 1.92805e+03
1.26724e+02 1.46441e+03 1.16329e-01 1.02102e+03 6.19862e+00 4.58951e+00 6.13190e+00 4.52545e+00 1.49193e+02 1.00000e+03 1.93485e+02 1.87748e+03
1.09498e+02 1.35224e+03 6.19160e-02 1.01747e+03 6.18604e+00 4.62172e+00 6.13819e+00 4.57698e+00 2.15189e+02 1.00000e+03 2.69227e+02 1.82056e+03
9.29033e+01 1.23477e+03 5.28480e-02 1.01610e+03 6.17631e+00 4.65127e+00 6.14376e+00 4.62198e+00 3.30738e+02 1.00000e+03 3.95232e+02 1.75553e+03
7.69398e+01 1.11110e+03 8.61930e-02 1.01662e+03 6.16724e+00 4.67605e+00 6.14714e+00 4.65914e+00 5.75726e+02 1.00000e+03 6.39032e+02 1.68775e+03
6.16048e+01 9.82383e+02 8.27100e-03 1.01395e+03 6.17762e+00 4.72449e+00 6.16667e+00 4.71653e+00 1.23671e+03 1.00000e+03 1.17545e+03 1.62400e+03
4.68871e+01 8.49092e+02 0.00000e+00 1.01409e+03 6.18464e+00 4.76356e+00 6.17911e+00 4.76081e+00 3.60055e+03 1.00000e+03 2.33268e+03 1.56284e+03
3.27703e+01 7.09774e+02 0.00000e+00 1.01483e+03 6.19446e+00 4.80271e+00 6.19131e+00 4.80214e+00 1.76191e+04 1.00000e+03 4.09855e+03 1.50414e+03
1.92405e+01 5.64864e+02 8.60570e-02 1.01565e+03 6.17303e+00 4.80895e+00 6.17054e+00 4.80890e+00 2.28423e+05 1.00000e+03 5.14484e+03 1.45096e+03
6.27568e+00 3.98076e+02 9.24477e-01 1.02044e+03 5.87111e+00 4.52677e+00 5.86857e+00 4.52677e+00 5.70188e+07 1.00000e+03 4.82216e+03 1.40804e+03
